975
981
984
989
992
994
994
995
996
991
964
932
915
909
914
911
941
976
1007
1028
1044
1043
1039
1038
1034
1029
1025
1021
1014
1010
986
955
925
915
910
919
924
957
990
1014
1037
1027
1033
1027
1022
1018
1012
1008
1003
1002
987
947
918
901
897
902
907
935
971
996
1013
1028
1024
1015
1012
1007
1003
1000
993
996
982
951
924
897
893
892
899
915
957
984
1006
1024
1024
1021
1015
1013
1008
1005
999
996
989
963
927
903
899
890
902
917
948
982
1009
1024
1027
1025
1019
1015
1012
1009
1004
1000
997
979
942
914
903
900
904
912
943
977
1007
1022
1037
1031
1028
1026
1021
1017
1015
1012
1009
998
964
934
920
910
915
922
947
981
1012
1029
1047
1045
1039
1037
1031
1030
1024
1018
1017
1011
978
950
928
920
920
925
943
975
1008
1032
1046
1052
1043
1043
1040
1036
1031
1028
1026
1020
1002
958
941
930
927
931
937
973
1008
1035
1053
1063
1059
1055
1052
1050
1044
1038
1037
1033
1019
983
954
941
936
937
944
970
1010
1036
1055
1079
1069
1065
1064
1061
1059
1054
1057
1050
1045
1016
983
968
962
967
973
994
1033
1068
1093
1109
1120
1117
1120
1121
1123
1125
1126
1127
1128
1109
1085
1072
1069
1075
1090
1115
1154
1197
1233
1271
1279
1287
1294
1303
1322
1321
1335
1341
1350
1353
1329
1317
1319
1330
1350
1372
1419
1461
1512
1548
1576
1589
1601
1614
1631
1646
1661
1671
1684
1692
1676
1665
1663
1674
1692
1715
1756
1803
1851
1888
1918
1931
1947
1956
1968
1978
1988
1997
2005
2011
2001
1976
1967
1971
1980
1998
2024
2065
2106
2135
2163
2177
2181
2175
2187
2188
2185
2187
2189
2188
2178
2145
2120
2112
2112
2118
2124
2160
2200
2223
2238
2251
2246
2240
2236
2231
2225
2217
2209
2203
2188
2151
2119
2100
2089
2088
2089
2108
2138
2160
2174
2182
2174
2164
2154
2145
2133
2122
2111
2099
2086
2050
2012
1982
1966
1957
1953
1961
1985
2018
2024
2031
2030
2013
2001
1988
1974
1966
1949
1935
1916
1894
1848
1811
1792
1779
1777
1775
1809
1824
1844
1847
1847
1834
1820
1805
1797
1782
1766
1762
1746
1725
1676
1637
1615
1603
1596
1591
1611
1635
1655
1664
1672
1665
1651
1634
1621
1607
1595
1583
1571
1553
1506
1475
1441
1429
1423
1423
1433
1458
1482
1495
1498
1498
1485
1473
1460
1447
1437
1424
1412
1399
1369
1325
1293
1277
1266
1265
1271
1295
1328
1340
1357
1348
1334
1328
1313
1302
1284
1277
1266
1258
1234
1192
1158
1136
1126
1122
1120
1145
1179
1190
1200
1211
1198
1195
1181
1173
1161
1149
1142
1131
1116
1075
1040
1013
1004
994
1001
1016
1047
1073
1089
1110
1094
1084
1079
1071
1062
1044
1046
1034
1029
998
970
934
924
921
922
937
965
996
1019
1035
1037
1030
1024
1019
1013
1007
1001
995
992
973
936
909
894
890
893
901
933
968
992
1013
1022
1020
1015
1014
1010
1007
1003
998
1000
988
955
925
908
901
906
909
937
974
1005
1024
1041
1044
1037
1035
1032
1027
1023
1023
1011
1010
977
953
931
922
928
935
953
989
1020
1042
1060
1066
1060
1058
1054
1053
1047
1042
1045
1034
1014
982
957
945
945
950
960
995
1025
1051
1074
1083
1078
1075
1071
1065
1063
1058
1052
1046
1038
1001
967
953
946
949
950
976
1012
1042
1059
1073
1067
1064
1057
1056
1047
1042
1037
1032
1023
988
957
935
926
920
930
944
978
1009
1029
1036
1044
1036
1029
1025
1021
1015
1002
1001
993
963
930
902
893
890
891
903
933
964
986
1001
1007
1003
994
990
983
977
971
965
962
943
906
874
855
852
853
855
884
917
941
957
968
958
955
950
944
935
933
926
920
908
874
841
821
813
812
816
838
869
905
919
937
928
925
918
912
905
899
894
889
877
852
816
793
782
781
784
799
827
860
881
898
899
895
892
884
879
875
869
862
857
838
802
773
761
755
760
764
796
826
850
871
880
877
871
867
862
855
852
847
842
830
795
764
749
740
745
752
772
807
835
854
870
866
860
854
851
846
839
833
833
822
798
760
735
728
731
735
747
785
816
841
856
860
856
852
849
845
839
833
832
824
806
764
743
731
730
735
743
779
814
834
850
858
855
851
846
843
840
836
833
822
818
782
753
736
731
737
743
773
804
836
854
868
865
863
860
856
852
847
842
840
831
799
768
745
742
740
749
769
805
830
858
870
875
873
870
866
864
860
856
854
849
821
789
767
759
758
765
781
811
846
871
890
895
895
886
887
887
880
877
873
873
859
821
796
780
775
781
783
822
855
876
903
917
913
911
909
907
898
898
892
891
882
847
823
803
794
798
804
832
862
898
913
931
932
928
925
922
919
914
910
909
903
884
846
825
816
815
826
840
872
903
925
946
953
943
946
944
941
935
930
927
924
906
870
847
836
831
835
841
876
910
940
956
970
975
965
960
966
952
950
948
944
933
899
874
858
850
856
861
890
924
955
973
993
990
988
985
984
981
978
976
974
967
939
908
891
885
891
899
921
959
994
1019
1045
1045
1046
1048
1051
1052
1055
1058
1059
1056
1049
1022
1004
1007
1013
1019
1048
1095
1135
1172
1203
1225
1232
1246
1255
1268
1275
1287
1295
1308
1314
1291
1282
1285
1298
1319
1344
1390
1442
1489
1527
1561
1576
1594
1611
1626
1643
1656
1675
1689
1700
1693
1677
1675
1690
1714
1735
1774
1826
1874
1913
1953
1967
1978
1996
2008
2019
2031
2041
2055
2063
2050
2037
2022
2025
2035
2054
2077
2121
2163
2194
2222
2238
2245
2248
2250
2254
2258
2259
2260
2259
2251
2217
2196
2187
2185
2187
2196
2228
2267
2283
2305
2318
2314
2307
2307
2298
2287
2284
2281
2271
2255
2218
2184
2161
2149
2145
2146
2162
2186
2212
2222
2233
2222
2213
2198
2187
2176
2163
2148
2139
2124
2091
2043
2011
1993
1982
1978
1985
2005
2033
2043
2056
2042
2033
2014
2000
1986
1974
1956
1948
1929
1899
1853
1817
1793
1779
1775
1767
1788
1811
1828
1832
1835
1820
1804
1795
1777
1761
1746
1734
1718
1700
1652
1613
1584
1570
1564
1563
1579
1602
1619
1630
1635
1623
1608
1593
1580
1567
1554
1538
1524
1511
1475
1430
1404
1385
1377
1375
1384
1407
1430
1440
1443
1440
1423
1416
1404
1392
1377
1366
1353
1341
1310
1270
1232
1211
1202
1199
1196
1225
1249
1264
1273
1279
1265
1252
1240
1228
1219
1203
1194
1178
1162
1118
1079
1062
1049
1048
1044
1068
1088
1113
1123
1133
1121
1110
1099
1088
1077
1065
1054
1043
1027
990
954
926
915
911
910
928
953
981
995
1000
1003
992
983
974
970
957
947
942
929
901
860
836
824
818
821
832
862
891
910
924
926
925
916
909
901
894
893
886
879
869
822
793
779
775
777
785
814
849
875
891
903
897
893
889
886
880
884
873
866
859
826
796
778
773
778
786
809
847
876
895
913
912
906
906
902
900
896
896
892
886
859
822
808
804
807
813
832
868
900
923
936
945
945
942
939
934
934
928
927
927
904
871
846
836
835
841
851
884
917
945
962
968
973
967
967
962
961
951
949
947
932
893
872
854
849
849
856
884
915
943
965
981
981
974
970
966
959
957
951
947
938
901
872
852
842
845
848
868
904
931
948
958
967
959
959
952
947
941
936
936
924
899
863
837
827
815
822
839
868
898
916
935
944
936
929
924
923
913
910
904
899
881
846
809
800
795
797
799
829
868
885
903
914
908
902
897
890
886
877
874
866
857
820
792
768
761
762
769
791
823
852
871
893
883
879
873
869
863
853
848
841
835
801
779
748
740
736
740
755
787
815
838
856
856
852
841
842
838
832
827
820
815
798
758
731
719
715
719
726
756
790
813
831
840
835
829
822
820
815
808
804
791
787
752
725
709
702
704
708
738
770
799
816
832
826
822
818
812
808
807
803
794
787
756
723
704
696
697
701
721
745
787
804
811
825
820
816
813
813
807
802
797
792
766
731
707
698
702
695
705
741
779
801
824
827
822
819
815
811
809
803
798
792
779
742
716
701
698
703
712
742
775
812
823
838
833
830
825
824
822
815
811
808
799
764
741
720
714
716
723
744
780
806
833
848
848
844
842
838
833
830
827
825
818
786
763
743
735
734
738
758
789
820
849
867
865
870
870
866
864
859
860
850
849
830
794
772
757
757
760
767
799
835
863
880
891
891
888
882
884
878
877
876
868
865
830
805
789
785
787
795
822
852
888
906
921
922
920
916
914
908
908
904
900
895
868
837
818
810
812
819
838
875
906
928
945
950
946
940
944
940
936
933
931
929
907
874
853
842
840
848
860
891
931
952
971
980
977
970
970
971
964
962
956
957
941
905
875
862
862
866
875
904
939
969
989
1006
1003
1000
998
993
991
986
985
981
973
943
915
895
891
895
900
923
957
987
1009
1031
1029
1025
1023
1019
1018
1013
1010
1007
1002
978
947
922
915
913
920
936
972
999
1025
1042
1049
1046
1045
1043
1039
1033
1031
1025
1025
1010
977
949
937
932
938
945
978
1014
1038
1055
1069
1069
1066
1064
1064
1062
1057
1060
1057
1053
1016
996
984
982
992
1000
1031
1069
1108
1130
1147
1164
1168
1174
1177
1184
1189
1199
1203
1209
1192
1171
1162
1166
1182
1201
1233
1280
1330
1367
1399
1422
1433
1448
1464
1474
1492
1507
1525
1538
1542
1525
1520
1533
1550
1576
1604
1661
1714
1765
1798
1830
1849
1865
1885
1901
1918
1933
1949
1963
1970
1959
1944
1947
1961
1981
2004
2049
2098
2142
2176
2206
2220
2230
2241
2250
2260
2268
2274
2285
2287
2266
2247
2234
2235
2242
2255
2278
2320
2356
2380
2401
2410
2408
2404
2403
2402
2399
2398
2394
2389
2362
2328
2306
2291
2284
2288
2299
2326
2352
2369
2381
2386
2377
2365
2354
2343
2332
2320
2309
2297
2280
2227
2192
2170
2153
2145
2144
2166
2188
2203
2211
2214
2200
2186
2172
2156
2141
2126
2109
2092
2072
2025
1981
1951
1931
1922
1916
1927
1947
1962
1969
1973
1960
1947
1926
1912
1897
1879
1861
1846
1829
1790
1745
1710
1688
1676
1669
1674
1690
1709
1721
1726
1722
1704
1690
1676
1659
1644
1629
1614
1594
1568
1519
1486
1469
1447
1439
1435
1458
1482
1499
1504
1507
1494
1479
1463
1453
1438
1423
1405
1397
1375
1331
1294
1263
1250
1243
1239
1257
1280
1297
1311
1313
1306
1295
1280
1270
1256
1242
1231
1219
1203
1162
1128
1096
1081
1075
1069
1079
1104
1130
1142
1146
1148
1132
1124
1112
1100
1089
1078
1064
1054
1021
986
953
935
926
923
928
953
981
995
1006
1009
1004
991
981
974
953
953
944
933
916
875
842
823
813
814
815
839
868
894
906
918
912
903
895
882
879
874
866
850
845
819
780
759
754
748
752
769
802
832
852
865
868
864
857
847
850
847
841
838
829
806
770
748
741
742
747
761
795
827
851
870
875
878
873
872
866
863
861
861
858
846
811
782
774
772
777
787
819
858
887
909
923
923
921
922
916
919
913
913
916
907
873
847
824
827
830
836
866
901
931
951
967
971
973
969
966
964
963
961
956
954
928
896
874
869
867
875
892
924
960
986
1005
1006
1005
1001
998
999
995
990
987
981
963
927
902
890
889
896
902
933
968
993
1011
1021
1016
1015
1008
1003
998
993
989
983
973
934
909
887
880
880
886
909
943
972
990
1002
1003
998
995
985
983
977
973
966
957
926
893
870
862
861
867
881
914
941
961
970
979
972
966
962
955
951
945
941
930
909
877
846
837
829
832
841
873
903
925
940
951
944
939
937
930
924
920
914
905
894
855
824
807
805
806
812
834
868
896
911
927
920
913
908
905
897
893
888
881
872
838
815
790
778
778
784
806
837
867
885
897
898
897
892
886
882
875
870
865
861
829
800
773
765
763
767
779
813
844
873
881
890
884
878
873
870
866
865
857
852
835
798
770
753
751
759
763
793
827
855
872
884
878
880
875
869
864
861
859
854
847
809
780
762
756
761
762
784
819
853
869
888
887
881
878
873
869
866
860
857
851
819
793
767
752
761
763
780
813
845
868
879
890
886
886
881
879
873
869
866
862
845
809
784
770
766
771
780
811
844
875
889
906
898
895
894
891
885
877
879
874
867
831
801
787
782
785
791
812
850
878
901
915
916
911
908
906
903
901
897
897
888
864
829
807
802
804
812
832
867
893
918
938
939
939
938
934
932
927
924
922
912
901
866
845
832
828
836
846
878
913
941
957
969
965
961
958
955
952
948
946
944
935
898
865
858
856
860
866
892
931
960
978
992
991
990
988
983
982
978
976
974
966
943
908
886
881
883
889
910
945
977
998
1011
1021
1016
1013
1016
1007
1003
999
1000
996
974
941
919
911
910
916
934
959
996
1020
1037
1049
1044
1041
1040
1036
1034
1032
1025
1024
1013
979
950
938
942
938
944
974
1009
1037
1058
1070
1067
1067
1062
1057
1053
1052
1049
1055
1041
1006
975
958
950
955
959
985
1018
1049
1071
1088
1089
1085
1084
1081
1078
1077
1073
1072
1065
1034
1008
988
979
985
989
1007
1043
1075
1104
1128
1137
1140
1141
1142
1143
1144
1144
1147
1137
1139
1109
1089
1089
1096
1108
1127
1168
1213
1252
1284
1309
1321
1327
1340
1349
1357
1371
1385
1399
1407
1386
1376
1379
1392
1413
1437
1481
1536
1587
1628
1667
1688
1703
1720
1739
1752
1774
1794
1809
1823
1820
1803
1805
1821
1843
1868
1912
1963
2014
2057
2093
2118
2134
2145
2164
2176
2190
2204
2218
2229
2230
2202
2194
2197
2210
2228
2252
2297
2341
2375
2400
2423
2430
2436
2439
2445
2447
2452
2454
2452
2446
2413
2386
2375
2371
2377
2386
2415
2455
2477
2495
2509
2502
2498
2480
2484
2476
2466
2462
2449
2436
2398
2359
2337
2322
2316
2312
2329
2352
2366
2387
2390
2389
2374
2361
2347
2334
2319
2304
2289
2270
2236
2189
2153
2144
2123
2119
2115
2136
2157
2167
2172
2168
2147
2134
2116
2100
2081
2065
2053
2030
2002
1951
1910
1889
1870
1860
1852
1870
1890
1897
1908
1909
1892
1876
1856
1841
1820
1805
1789
1770
1749
1701
1661
1627
1610
1597
1589
1604
1628
1647
1655
1659
1647
1630
1618
1598
1584
1569
1551
1538
1518
1485
1430
1401
1380
1369
1366
1374
1394
1417
1430
1435
1432
1418
1405
1392
1377
1361
1348
1334
1318
1288
1241
1210
1188
1176
1170
1171
1197
1217
1238
1245
1247
1235
1222
1213
1199
1188
1172
1163
1148
1132
1082
1045
1022
1011
1006
1006
1027
1054
1073
1086
1097
1085
1074
1064
1055
1042
1032
1027
1010
997
957
920
895
882
878
877
894
922
948
961
976
971
964
952
947
939
931
922
916
906
878
840
809
798
795
799
809
841
870
898
906
916
909
904
898
894
889
884
881
874
857
820
792
776
774
778
785
820
851
883
902
918
915
913
910
908
906
902
901
897
890
844
813
812
805
809
817
846
882
916
936
957
963
963
962
960
962
968
956
955
950
925
895
871
862
868
866
897
933
972
1001
1021
1032
1029
1029
1026
1025
1021
1021
1017
1015
1007
966
937
929
924
925
940
978
1017
1047
1069
1083
1079
1078
1073
1070
1068
1067
1057
1058
1053
1013
987
966
959
960
972
998
1033
1062
1084
1104
1104
1098
1095
1093
1087
1084
1077
1070
1061
1032
991
971
959
959
963
981
1016
1050
1074
1091
1094
1095
1085
1078
1073
1067
1056
1067
1049
1025
975
954
939
932
943
947
982
1011
1035
1054
1066
1058
1053
1048
1043
1036
1029
1017
1013
1003
959
927
910
899
899
904
931
965
991
1011
1028
1021
1015
1011
1004
999
993
984
979
969
933
893
873
860
860
863
885
914
948
971
981
986
980
973
967
960
953
945
938
930
909
866
839
827
824
829
839
872
903
926
940
948
941
937
930
927
920
914
905
903
875
845
816
801
795
801
804
835
874
899
918
930
925
922
915
907
903
898
891
886
876
836
806
787
778
781
784
810
843
876
893
910
910
907
901
897
892
883
885
880
874
834
808
782
771
772
778
796
831
863
886
906
913
909
905
903
897
893
889
888
883
862
824
788
782
779
785
792
826
862
891
913
925
916
913
913
909
905
902
899
896
884
844
817
798
791
793
801
829
864
895
916
937
934
930
926
924
921
920
916
911
902
873
840
820
812
812
819
840
875
911
936
952
958
956
956
953
950
943
941
940
937
910
870
848
838
835
852
857
890
926
952
974
983
981
983
979
975
971
968
967
962
951
914
885
864
864
865
874
906
938
975
994
1010
1007
1003
1001
997
994
992
989
986
976
941
911
891
885
885
893
914
954
987
1011
1034
1031
1030
1028
1027
1021
1014
1014
1010
1003
978
938
917
913
910
918
934
969
1004
1034
1049
1059
1056
1053
1051
1051
1045
1046
1040
1037
1020
984
958
945
943
949
960
999
1036
1066
1089
1108
1108
1108
1107
1111
1112
1116
1115
1123
1116
1087
1063
1053
1056
1067
1083
1121
1165
1209
1238
1272
1289
1293
1305
1305
1327
1337
1349
1364
1372
1360
1344
1335
1348
1367
1390
1432
1490
1546
1589
1630
1650
1676
1693
1713
1732
1750
1772
1790
1809
1809
1791
1788
1801
1823
1852
1884
1939
1999
2045
2088
2123
2138
2156
2173
2188
2203
2220
2237
2247
2256
2229
2220
2222
2231
2248
2269
2314
2364
2408
2443
2468
2474
2482
2494
2493
2500
2503
2507
2512
2510
2477
2453
2435
2433
2437
2445
2472
2510
2542
2566
2584
2589
2584
2577
2568
2560
2554
2545
2537
2527
2496
2452
2419
2402
2393
2392
2396
2420
2452
2468
2479
2477
2459
2445
2437
2421
2408
2396
2378
2363
2334
2282
2243
2216
2197
2189
2184
2200
2233
2243
2249
2248
2233
2212
2200
2171
2164
2147
2126
2107
2087
2037
1990
1956
1934
1921
1913
1926
1946
1964
1973
1981
1962
1945
1927
1911
1893
1874
1857
1840
1818
1780
1727
1691
1664
1651
1643
1649
1667
1691
1706
1711
1694
1684
1665
1649
1633
1613
1600
1584
1566
1533
1487
1449
1425
1403
1393
1392
1414
1437
1456
1468
1460
1449
1435
1420
1407
1394
1376
1363
1349
1327
1277
1238
1210
1192
1185
1182
1198
1225
1246
1258
1265
1254
1239
1223
1211
1198
1186
1175
1159
1145
1104
1058
1026
1010
1002
998
1019
1033
1063
1073
1083
1082
1064
1054
1046
1029
1019
1007
997
982
957
918
878
859
846
843
853
878
907
928
939
943
938
926
914
907
898
888
879
867
850
810
776
754
745
744
749
776
811
832
850
860
858
852
849
841
835
830
825
819
808
761
738
716
708
708
716
729
771
804
826
842
848
843
839
841
833
835
825
825
820
798
761
736
727
731
738
754
793
832
857
879
891
893
887
887
885
878
881
883
881
858
828
805
794
791
799
811
846
886
916
939
962
956
958
957
956
955
957
953
955
946
912
884
868
864
870
876
905
950
978
1005
1024
1024
1023
1022
1021
1021
1024
1014
1015
1009
980
946
922
915
916
922
940
981
1013
1041
1060
1059
1063
1059
1057
1055
1047
1046
1043
1039
1017
979
954
944
940
947
955
986
1027
1054
1074
1084
1079
1075
1072
1065
1068
1056
1050
1050
1033
993
963
943
935
925
938
964
1002
1036
1049
1064
1059
1056
1049
1048
1042
1036
1030
1023
1013
978
943
918
907
907
909
928
965
995
1016
1029
1033
1029
1023
1011
1014
1007
998
986
983
955
917
888
879
872
875
885
916
950
977
991
1003
997
992
985
981
974
974
962
960
942
899
871
853
847
848
854
884
917
950
964
978
972
971
961
959
953
948
942
939
928
892
855
834
825
824
828
850
884
917
938
954
952
950
948
938
931
934
930
928
918
891
861
828
811
809
819
834
868
898
925
946
950
945
941
942
934
929
929
920
913
895
855
829
813
806
811
816
853
887
917
936
948
945
941
937
933
930
923
920
919
904
867
837
817
811
810
818
846
879
912
931
954
949
943
942
940
935
930
927
919
912
883
847
824
812
811
818
839
874
907
933
949
957
954
949
945
942
940
934
929
922
896
864
839
826
814
826
835
869
899
933
950
963
970
959
955
953
950
947
939
938
926
887
855
841
834
838
844
873
910
942
962
979
974
974
970
966
960
957
953
949
939
902
875
851
844
846
850
875
908
947
969
979
983
981
979
977
974
970
969
972
955
931
894
873
859
858
862
878
910
947
971
1000
1002
1000
997
992
990
985
982
980
976
959
917
890
876
870
877
887
919
958
991
1010
1035
1024
1024
1024
1020
1024
1020
1022
1021
1018
983
958
946
943
958
964
999
1041
1092
1115
1141
1153
1163
1169
1175
1182
1192
1202
1215
1222
1207
1188
1178
1186
1202
1226
1261
1313
1365
1409
1446
1475
1490
1509
1525
1542
1562
1576
1594
1614
1621
1605
1601
1611
1630
1658
1689
1746
1800
1852
1892
1929
1952
1969
1991
2009
2026
2049
2060
2081
2088
2060
2062
2063
2075
2097
2121
2168
2220
2270
2305
2337
2350
2360
2373
2383
2395
2398
2407
2414
2418
2393
2375
2357
2356
2363
2375
2404
2444
2487
2508
2538
2539
2534
2532
2531
2529
2524
2521
2515
2507
2487
2439
2415
2400
2394
2397
2404
2436
2463
2483
2497
2499
2487
2478
2463
2453
2439
2429
2415
2396
2377
2330
2288
2263
2251
2242
2237
2258
2281
2301
2308
2313
2296
2280
2263
2245
2230
2213
2194
2185
2155
2105
2062
2027
2007
1993
1988
1999
2019
2037
2047
2047
2037
2021
2005
1995
1968
1949
1930
1914
1892
1848
1802
1761
1739
1726
1715
1718
1738
1759
1770
1774
1771
1755
1739
1721
1703
1686
1672
1656
1637
1605
1554
1519
1490
1475
1464
1462
1485
1509
1525
1534
1534
1519
1507
1489
1475
1462
1443
1429
1413
1391
1343
1298
1275
1258
1246
1245
1261
1286
1305
1315
1320
1311
1299
1285
1268
1254
1240
1229
1214
1196
1163
1109
1079
1058
1047
1042
1053
1080
1103
1118
1122
1122
1108
1097
1080
1072
1061
1049
1038
1022
989
944
902
890
880
877
881
908
937
955
968
969
957
949
938
928
919
905
897
886
870
823
789
768
759
759
758
786
811
842
856
869
860
855
845
837
829
821
817
808
797
766
726
703
690
695
695
715
753
776
800
818
816
806
807
805
798
803
792
789
780
759
720
698
689
688
695
713
749
785
813
832
842
837
835
835
832
830
830
825
829
809
772
739
736
736
749
753
789
825
857
878
895
892
886
892
889
890
888
885
888
879
842
815
801
797
804
812
840
879
913
938
962
966
959
958
957
954
953
951
951
946
917
885
866
859
862
867
891
927
963
986
1005
1003
1011
1009
1002
1000
997
995
992
985
962
935
905
895
896
899
913
938
981
1009
1028
1040
1034
1032
1024
1022
1015
1014
1009
1006
994
955
923
908
902
905
911
936
971
1003
1023
1038
1034
1026
1019
1016
1012
1004
1001
996
986
954
921
895
887
891
895
917
949
980
1002
1013
1019
1012
1006
992
994
990
983
979
969
939
907
882
871
867
865
882
905
943
972
989
989
988
977
973
969
956
960
954
945
933
891
860
845
841
840
847
877
910
936
954
965
955
956
948
945
942
936
930
924
914
879
847
824
820
820
824
847
882
913
930
948
945
941
933
928
924
921
918
911
904
873
839
813
806
805
807
825
859
900
913
936
932
929
923
919
913
905
902
899
895
873
834
810
795
789
795
805
829
871
900
918
924
921
915
911
905
904
899
893
890
879
840
811
795
787
788
796
824
864
887
908
921
921
916
913
907
903
896
903
893
876
852
819
798
791
789
799
817
847
881
900
922
922
918
912
907
905
899
896
893
886
863
827
800
790
789
794
810
836
875
902
930
922
919
918
913
916
904
903
900
894
886
841
816
799
795
797
806
836
873
899
918
932
927
923
920
916
912
908
905
903
892
856
829
815
804
806
812
840
870
903
925
941
946
940
935
932
929
925
923
917
912
883
850
825
818
818
826
840
873
907
927
949
959
956
953
952
949
947
944
945
938
926
893
870
859
859
864
885
916
952
985
1013
1032
1036
1039
1041
1048
1049
1054
1060
1066
1068
1044
1026
1021
1031
1044
1061
1104
1153
1202
1238
1272
1287
1300
1315
1331
1346
1361
1379
1398
1414
1408
1396
1397
1412
1438
1468
1511
1568
1624
1671
1714
1746
1761
1791
1805
1828
1847
1870
1892
1912
1914
1905
1900
1914
1935
1964
1999
2059
2113
2156
2201
2232
2248
2264
2279
2298
2314
2326
2340
2353
2359
2341
2326
2324
2333
2348
2369
2413
2456
2494
2526
2554
2559
2562
2566
2569
2573
2572
2577
2577
2578
2541
2515
2495
2491
2493
2498
2522
2553
2585
2605
2614
2617
2611
2604
2591
2585
2577
2574
2558
2548
2516
2476
2442
2424
2413
2409
2415
2439
2463
2475
2485
2483
2469
2452
2438
2421
2406
2390
2373
2358
2332
2281
2240
2213
2199
2181
2178
2195
2216
2228
2238
2242
2221
2204
2188
2168
2150
2134
2116
2093
2076
2027
1986
1950
1927
1915
1907
1917
1935
1954
1962
1967
1951
1933
1914
1899
1881
1862
1846
1826
1810
1769
1721
1683
1658
1649
1637
1635
1660
1682
1689
1694
1691
1675
1655
1642
1627
1607
1589
1573
1557
1533
1483
1442
1414
1397
1391
1389
1406
1428
1445
1452
1456
1437
1425
1408
1392
1376
1363
1351
1336
1314
1268
1224
1198
1180
1171
1166
1179
1200
1224
1234
1241
1238
1216
1202
1191
1174
1160
1149
1133
1118
1077
1037
1004
985
976
971
977
999
1028
1045
1054
1056
1042
1022
1016
1004
991
979
968
958
929
890
853
835
824
823
824
847
877
899
916
914
911
903
893
884
856
866
859
849
834
794
761
739
727
727
728
752
774
810
831
841
839
833
829
823
818
812
802
809
791
762
728
702
693
695
699
716
749
783
804
826
834
827
818
818
818
814
809
809
809
785
742
731
720
717
724
734
769
808
838
858
872
865
869
867
866
864
864
861
862
854
821
793
778
775
781
790
820
858
892
907
935
934
936
928
928
922
923
925
921
915
886
860
838
832
837
845
856
898
935
961
979
988
985
981
978
975
971
968
965
966
939
902
880
868
867
873
887
919
957
982
1002
1012
1007
1003
1000
997
987
990
985
983
967
932
898
885
878
882
886
915
950
981
997
1014
1013
1005
1004
994
983
983
978
975
964
936
895
873
863
866
868
888
922
951
972
986
992
984
980
969
966
962
949
951
943
925
886
851
840
837
841
852
885
916
940
951
960
953
942
940
937
930
923
914
916
899
852
828
809
801
803
808
840
877
905
922
935
925
919
913
909
902
897
893
885
874
836
806
786
778
777
782
806
843
873
894
910
909
903
895
890
887
879
874
875
865
829
798
774
765
761
767
784
816
848
869
884
894
885
880
876
869
864
863
856
851
832
788
765
752
746
752
754
789
827
850
867
881
870
871
867
861
857
852
848
844
832
793
759
745
737
740
746
769
807
838
858
878
871
867
861
857
852
846
842
837
828
801
761
742
736
734
740
759
793
827
845
864
877
864
860
856
853
849
846
839
835
811
775
749
737
735
740
752
784
820
846
865
869
869
864
861
855
851
846
844
839
829
785
761
745
740
743
749
780
814
851
868
882
878
876
870
864
862
858
854
849
839
808
782
751
746
749
756
779
812
845
870
881
890
890
882
878
877
872
875
866
860
836
802
777
770
770
778
797
834
871
899
922
933
933
935
938
941
942
943
947
950
941
912
894
893
896
915
932
978
1026
1068
1099
1130
1139
1157
1168
1178
1193
1207
1221
1236
1246
1230
1218
1223
1236
1262
1291
1339
1398
1452
1498
1537
1564
1583
1602
1622
1642
1664
1684
1705
1724
1717
1709
1709
1726
1750
1781
1825
1883
1938
1986
2029
2053
2071
2089
2106
2126
2140
2158
2173
2190
2185
2173
2158
2162
2175
2196
2218
2269
2314
2357
2389
2412
2421
2425
2431
2438
2442
2448
2452
2455
2449
2416
2391
2380
2377
2382
2392
2419
2444
2492
2508
2525
2525
2516
2511
2505
2498
2489
2480
2471
2460
2428
2386
2357
2343
2338
2336
2348
2377
2401
2413
2423
2415
2404
2391
2376
2364
2346
2332
2320
2300
2270
2225
2186
2162
2150
2140
2145
2162
2194
2197
2201
2198
2182
2166
2148
2129
2112
2086
2077
2057
2029
1977
1937
1907
1885
1879
1868
1890
1910
1921
1931
1933
1924
1899
1881
1866
1846
1828
1813
1794
1773
1726
1679
1647
1627
1616
1611
1620
1643
1661
1666
1672
1663
1646
1626
1612
1595
1575
1559
1544
1525
1487
1439
1402
1381
1369
1366
1369
1386
1413
1423
1429
1428
1409
1395
1382
1355
1351
1334
1321
1305
1265
1228
1187
1165
1152
1146
1141
1165
1189
1214
1216
1220
1209
1193
1186
1166
1151
1137
1121
1107
1092
1040
1005
977
958
954
949
967
996
1018
1033
1042
1031
1018
1002
989
978
965
954
941
928
887
838
814
802
806
794
806
833
861
878
894
890
879
866
857
847
835
828
819
807
784
740
707
688
685
684
689
721
753
777
792
804
795
800
779
772
769
758
750
748
732
691
660
643
637
636
642
670
702
740
757
772
773
767
768
762
764
752
746
739
734
704
672
652
645
643
653
677
712
746
774
796
797
796
791
787
786
784
784
783
777
754
717
696
688
690
697
716
760
790
819
835
854
853
854
848
836
845
845
843
840
827
789
762
755
747
753
762
798
835
868
888
906
904
902
900
905
898
895
893
891
884
838
816
796
792
796
800
827
865
899
921
937
941
935
933
928
922
918
912
910
903
881
848
812
804
805
812
829
862
895
922
939
944
939
936
930
928
921
917
912
905
887
846
819
805
800
804
812
845
877
903
923
933
930
921
918
913
907
901
895
889
880
840
807
780
777
781
784
813
850
878
899
915
908
904
899
894
888
885
878
870
860
839
791
767
756
757
760
779
813
847
870
889
885
882
877
869
864
859
854
845
839
809
775
742
734
727
730
737
772
807
835
857
855
856
855
841
842
838
832
828
820
804
766
733
715
710
711
718
748
788
812
834
848
846
839
836
831
824
821
815
808
801
764
730
709
698
699
705
727
763
797
819
835
837
831
826
822
818
813
808
804
797
766
732
703
694
693
696
714
750
784
815
829
838
835
828
822
817
815
809
801
799
781
744
714
697
693
693
704
739
775
803
825
839
835
832
826
821
817
812
809
803
796
756
728
707
699
702
706
736
772
807
827
845
842
833
834
830
819
825
814
807
802
773
736
712
706
706
713
729
764
804
826
843
855
843
839
836
832
828
827
820
818
792
750
730
719
714
717
727
763
797
832
845
861
858
853
850
843
841
834
833
830
817
779
750
733
726
733
739
765
807
840
862
880
875
871
868
867
866
859
858
857
846
810
786
761
757
760
767
790
832
868
895
916
918
929
932
930
933
925
927
938
941
923
894
877
877
889
904
933
984
1034
1066
1102
1123
1135
1148
1157
1173
1188
1206
1216
1233
1234
1221
1210
1216
1235
1264
1291
1350
1407
1459
1502
1543
1565
1584
1605
1623
1646
1668
1686
1710
1726
1713
1708
1714
1731
1758
1789
1837
1899
1952
1999
2039
2066
2082
2102
2118
2137
2153
2169
2189
2198
2184
2164
2161
2172
2187
2208
2240
2289
2335
2377
2403
2426
2434
2440
2448
2452
2458
2449
2462
2461
2446
2415
2393
2386
2386
2393
2404
2442
2480
2507
2526
2539
2533
2529
2522
2516
2507
2498
2489
2478
2462
2420
2381
2359
2344
2343
2340
2364
2395
2417
2428
2436
2426
2412
2397
2385
2368
2352
2336
2324
2302
2252
2213
2179
2159
2149
2141
2152
2176
2195
2207
2210
2201
2187
2167
2150
2132
2112
2095
2076
2057
2019
1965
1927
1902
1885
1881
1875
1898
1919
1936
1941
1934
1914
1894
1879
1862
1845
1824
1809
1789
1757
1709
1666
1638
1617
1609
1604
1623
1645
1663
1668
1671
1656
1638
1624
1608
1590
1574
1554
1539
1519
1470
1427
1393
1377
1366
1362
1375
1394
1421
1430
1431
1425
1409
1396
1379
1366
1349
1335
1321
1301
1261
1216
1179
1161
1152
1145
1152
1179
1203
1219
1228
1225
1207
1196
1181
1165
1151
1138
1126
1108
1086
1022
995
972
962
956
956
983
1019
1024
1040
1046
1029
1019
1009
995
983
970
959
946
928
879
836
818
805
802
801
823
854
878
893
904
893
887
875
862
850
843
843
826
808
776
734
710
692
689
689
714
736
770
784
802
809
798
788
785
777
769
763
758
749
724
686
655
645
640
645
657
690
724
750
764
774
774
769
766
765
760
758
759
749
731
694
662
651
646
652
661
689
734
766
783
800
798
794
794
792
789
786
790
785
774
746
710
690
686
691
696
727
758
796
823
843
846
844
845
841
840
837
841
834
829
793
769
756
738
740
744
763
803
840
868
886
900
891
895
893
890
888
885
882
879
856
822
796
784
778
787
796
830
865
888
918
932
930
925
925
919
915
912
910
905
893
854
823
806
801
805
811
838
875
904
925
939
942
936
934
931
913
914
910
908
895
854
825
805
795
795
792
820
854
886
910
925
930
923
916
912
908
900
898
888
885
859
819
788
781
776
780
792
827
857
884
903
911
905
901
895
891
885
878
873
870
849
812
783
766
762
762
769
800
834
865
884
895
889
885
880
873
863
857
852
849
835
796
768
744
734
736
743
765
802
830
852
868
866
859
854
850
843
836
831
828
822
791
752
727
717
719
720
737
772
803
826
844
850
844
837
832
828
816
814
811
804
781
745
717
704
699
703
708
746
775
795
822
835
830
824
822
815
801
804
797
794
782
740
716
693
689
692
697
722
760
793
813
832
826
825
819
816
809
806
800
797
787
754
721
699
692
693
700
720
754
785
810
826
822
824
822
818
812
807
803
799
792
771
728
706
695
688
693
709
744
785
806
823
834
833
829
822
816
813
812
809
807
789
746
720
708
704
708
714
747
787
814
837
849
844
840
836
834
829
824
819
819
810
775
738
722
717
720
726
746
790
809
839
855
856
853
848
845
841
839
838
831
825
802
764
738
734
732
736
757
789
823
850
871
872
870
866
862
861
855
854
848
844
827
789
756
751
748
754
766
800
834
864
886
897
895
891
889
884
882
879
877
877
868
832
807
796
792
799
808
844
882
915
939
961
968
968
972
975
979
983
992
996
997
974
955
945
951
966
988
1022
1070
1118
1156
1189
1209
1222
1235
1247
1262
1277
1292
1309
1327
1318
1305
1301
1313
1334
1363
1400
1455
1515
1564
1605
1638
1659
1676
1696
1718
1736
1758
1777
1804
1810
1793
1790
1799
1818
1845
1874
1928
1982
2038
2073
2108
2125
2140
2155
2172
2186
2198
2212
2223
2229
2211
2194
2193
2199
2222
2233
2271
2318
2362
2391
2414
2425
2431
2434
2436
2440
2444
2444
2445
2443
2417
2386
2373
2358
2359
2369
2385
2417
2451
2477
2491
2496
2487
2483
2474
2468
2458
2445
2438
2423
2402
2357
2325
2308
2295
2294
2290
2318
2344
2362
2368
2378
2356
2345
2329
2309
2302
2285
2269
2255
2235
2183
2144
2117
2096
2090
2086
2099
2122
2141
2149
2151
2135
2120
2104
2084
2069
2040
2036
2012
1994
1946
1909
1872
1853
1839
1831
1839
1862
1880
1892
1888
1882
1863
1846
1828
1810
1797
1778
1759
1742
1701
1656
1619
1591
1581
1574
1571
1595
1609
1624
1627
1629
1610
1597
1580
1564
1545
1532
1515
1502
1470
1421
1380
1355
1338
1334
1324
1346
1367
1385
1391
1394
1381
1362
1348
1330
1316
1301
1284
1272
1249
1205
1162
1137
1113
1110
1104
1119
1143
1163
1179
1188
1175
1159
1148
1134
1122
1104
1094
1080
1063
1034
984
952
931
921
919
929
950
979
995
999
999
994
977
964
954
944
935
922
916
887
840
810
793
779
779
779
807
841
852
870
877
862
858
848
839
832
819
806
806
792
751
720
696
688
688
693
716
751
772
796
802
807
798
790
788
781
780
762
761
759
727
695
671
662
661
664
683
717
753
772
787
796
790
787
784
780
777
772
775
769
744
712
686
678
676
682
698
733
766
797
812
826
824
822
819
818
814
813
808
811
802
765
739
725
721
727
738
767
807
834
858
872
872
870
867
866
864
861
861
863
856
819
791
774
771
773
779
806
842
877
896
914
919
915
911
909
905
897
898
895
892
867
830
807
802
797
805
822
855
890
916
935
936
940
934
928
919
919
915
911
906
893
850
825
815
810
814
823
855
891
915
936
945
940
936
928
927
921
917
913
909
896
857
825
808
802
801
808
838
870
899
917
934
928
926
919
914
910
905
898
894
886
850
817
790
783
784
787
806
839
873
890
901
908
905
898
895
895
884
879
872
864
844
804
776
764
759
764
774
808
840
867
881
889
881
878
871
869
863
857
853
844
833
792
764
750
743
739
751
780
812
839
856
872
869
863
859
853
846
843
839
833
821
791
756
734
725
727
730
754
788
818
838
854
854
849
846
841
834
833
828
827
817
793
755
730
717
714
720
738
769
803
828
844
851
845
842
835
842
825
825
820
815
802
753
729
719
714
717
724
756
790
819
833
845
847
842
839
833
831
825
821
818
809
770
741
725
720
717
725
750
784
819
838
857
860
847
845
839
838
832
829
825
817
783
753
733
723
724
731
748
780
813
839
853
853
858
853
850
850
842
838
835
829
809
770
743
732
730
743
748
778
815
840
854
871
867
864
860
857
848
851
850
836
833
798
768
751
747
753
758
789
824
854
873
884
888
883
881
876
875
872
869
867
856
821
793
772
766
767
772
794
828
865
879
907
902
898
895
892
889
885
881
880
875
852
819
790
785
782
779
802
836
873
899
919
925
919
921
916
912
909
906
902
903
887
849
826
814
812
818
824
859
898
924
954
968
971
969
972
970
972
975
979
981
983
955
940
921
921
934
952
988
1033
1070
1108
1135
1152
1164
1171
1187
1200
1215
1220
1233
1242
1224
1210
1214
1223
1242
1268
1305
1360
1412
1458
1499
1530
1542
1568
1584
1604
1623
1639
1653
1683
1687
1675
1674
1678
1697
1725
1760
1816
1871
1919
1959
1997
2012
2029
2046
2063
2077
2093
2105
2120
2126
2107
2095
2098
2105
2124
2145
2185
2233
2276
2309
2340
2349
2356
2360
2366
2371
2376
2378
2384
2381
2355
2333
2314
2311
2315
2326
2350
2385
2418
2440
2454
2461
2457
2456
2446
2440
2434
2424
2418
2408
2386
2343
2310
2297
2287
2285
2293
2320
2345
2360
2373
2373
2360
2346
2335
2322
2310
2297
2284
2269
2246
2194
2155
2133
2114
2105
2102
2120
2139
2156
2162
2157
2151
2132
2117
2102
2082
2065
2050
2035
2012
1970
1923
1892
1875
1861
1855
1862
1879
1902
1910
1913
1901
1881
1866
1851
1832
1815
1800
1784
1761
1726
1664
1636
1617
1603
1597
1601
1621
1645
1655
1660
1655
1639
1628
1605
1591
1572
1561
1551
1529
1499
1453
1406
1385
1368
1359
1358
1378
1403
1417
1427
1425
1413
1403
1383
1370
1352
1337
1322
1309
1286
1241
1200
1170
1153
1147
1142
1157
1180
1205
1215
1230
1214
1198
1187
1170
1155
1141
1129
1115
1098
1059
1016
984
967
957
955
965
992
1014
1030
1043
1035
1024
1010
1002
992
978
970
955
940
912
866
834
820
810
807
810
838
868
887
902
908
895
889
882
873
863
856
852
838
821
777
745
727
716
714
719
747
779
806
822
838
831
827
819
815
805
802
787
791
779
754
712
690
683
683
688
714
747
779
802
827
821
813
813
812
809
807
805
802
799
777
737
712
705
707
707
731
766
800
831
850
861
858
855
854
854
851
850
848
845
831
797
769
759
755
761
772
809
842
871
899
916
915
913
912
910
909
909
908
908
895
861
835
816
812
818
825
858
892
929
951
968
973
969
967
966
961
959
955
951
943
914
883
860
854
856
861
880
911
949
972
989
1000
1000
990
988
975
981
976
972
966
945
907
882
870
867
872
881
902
951
977
997
1005
1001
996
990
986
980
977
965
966
953
910
886
864
854
860
863
891
927
956
974
986
983
975
971
964
960
952
947
943
933
892
871
838
828
827
833
858
890
918
940
957
957
952
947
940
936
930
924
928
909
878
843
813
805
799
801
814
847
878
909
922
931
926
920
915
909
901
905
894
890
866
827
800
784
778
780
786
815
851
879
895
913
916
899
895
893
887
881
874
871
855
823
788
766
758
761
765
784
821
850
871
891
889
884
880
874
870
865
858
855
846
810
780
754
742
743
747
766
797
841
856
874
880
874
874
866
863
852
853
849
842
822
782
755
740
735
742
748
774
818
845
868
878
878
870
866
861
856
853
848
845
834
793
763
744
739
741
746
773
811
840
861
881
878
883
873
869
864
861
857
853
845
812
778
755
745
748
752
773
807
841
864
870
888
882
880
877
875
868
866
862
854
821
793
767
756
754
758
768
802
840
866
886
897
893
891
886
882
876
873
869
865
846
807
781
763
757
760
766
800
846
866
888
903
901
898
896
888
890
885
881
877
867
831
803
783
775
776
786
806
842
869
900
921
913
916
911
909
907
903
896
893
890
858
827
798
790
791
796
816
847
889
918
935
947
941
939
937
936
934
933
932
931
917
877
853
843
844
852
863
896
942
976
1001
1022
1025
1041
1035
1047
1043
1049
1058
1063
1062
1033
1017
1012
1019
1037
1056
1098
1147
1205
1238
1270
1290
1303
1318
1335
1349
1367
1381
1396
1407
1399
1391
1389
1402
1425
1455
1497
1552
1613
1660
1705
1730
1753
1772
1788
1813
1829
1850
1870
1886
1887
1873
1868
1877
1897
1922
1956
2013
2068
2115
2154
2176
2195
2211
2226
2240
2251
2261
2270
2282
2284
2270
2248
2243
2247
2262
2280
2321
2367
2405
2433
2459
2462
2467
2467
2470
2469
2468
2468
2467
2458
2421
2396
2374
2366
2366
2371
2392
2426
2456
2477
2484
2489
2476
2474
2466
2457
2442
2432
2424
2408
2378
2331
2294
2278
2267
2262
2268
2291
2316
2334
2344
2342
2327
2312
2298
2282
2270
2253
2238
2220
2190
2141
2099
2072
2054
2052
2039
2057
2082
2093
2106
2106
2090
2073
2057
2039
2021
2002
1987
1970
1946
1895
1851
1819
1797
1786
1787
1792
1814
1832
1839
1847
1832
1809
1798
1781
1765
1746
1730
1713
1689
1649
1601
1563
1542
1531
1524
1529
1549
1572
1585
1592
1586
1571
1556
1540
1526
1511
1493
1479
1461
1428
1384
1338
1316
1300
1292
1291
1310
1337
1358
1356
1374
1354
1339
1324
1311
1296
1280
1266
1251
1229
1181
1140
1113
1097
1088
1084
1105
1130
1149
1160
1163
1159
1146
1133
1128
1106
1094
1080
1068
1052
1004
966
935
920
912
910
922
950
974
989
998
996
987
973
963
952
940
930
920
907
882
834
796
785
779
775
782
811
845
862
878
877
868
862
855
847
833
832
820
808
794
749
720
700
692
693
697
726
760
788
804
820
816
812
807
802
797
792
790
784
774
744
718
687
686
680
687
707
746
776
799
813
820
819
815
814
820
810
808
804
797
772
736
710
704
702
710
728
763
800
828
843
860
856
858
856
853
852
852
849
850
827
795
772
761
757
767
774
810
847
881
902
921
918
916
915
912
912
909
910
906
896
862
835
812
807
813
822
849
884
917
940
961
958
958
954
953
950
948
944
940
934
909
870
846
838
839
843
861
898
932
958
977
983
978
973
970
963
966
957
953
950
927
888
858
845
840
846
851
884
920
945
966
974
968
963
957
955
949
945
942
932
919
877
847
829
820
821
824
852
890
915
935
949
948
943
938
930
927
922
915
910
899
870
830
806
797
792
796
816
849
881
902
919
926
915
910
906
901
893
888
881
871
849
808
780
767
770
767
777
811
844
870
889
898
899
886
882
877
872
868
859
850
837
795
763
747
744
743
748
779
811
840
860
873
872
869
862
858
852
848
843
834
825
787
757
737
727
735
732
756
787
819
839
855
857
856
852
848
844
838
833
831
819
787
754
730
718
718
723
737
769
802
828
848
855
849
846
842
838
832
829
823
824
805
763
732
715
714
718
721
755
791
818
837
853
850
845
841
839
833
830
822
820
809
764
738
719
714
714
719
748
783
813
833
852
850
849
845
843
836
828
830
825
819
788
752
729
721
719
721
744
780
814
838
855
860
859
855
853
849
846
840
839
830
810
774
752
735
732
736
746
778
813
834
863
879
871
868
865
864
859
854
850
844
832
793
762
742
741
746
752
781
818
848
867
883
882
878
874
871
874
864
861
860
849
817
784
764
754
757
762
785
817
846
880
894
896
892
892
889
883
891
879
870
871
846
810
786
778
777
783
802
835
872
899
920
929
928
929
928
931
927
939
934
936
919
888
874
857
866
877
894
934
982
1024
1053
1076
1085
1093
1101
1110
1123
1133
1144
1156
1160
1140
1129
1129
1139
1164
1190
1239
1296
1347
1390
1427
1449
1466
1489
1508
1531
1549
1568
1588
1606
1597
1588
1593
1608
1630
1661
1704
1760
1828
1868
1909
1936
1957
1977
1995
2014
2033
2053
2071
2086
2086
2068
2064
2071
2080
2107
2137
2188
2237
2281
2317
2339
2351
2368
2372
2379
2386
2391
2398
2402
2397
2366
2345
2346
2340
2348
2361
2393
2434
2465
2489
2508
2506
2502
2500
2497
2493
2486
2481
2476
2462
2424
2391
2362
2352
2346
2346
2356
2391
2417
2433
2440
2439
2429
2414
2402
2391
2377
2362
2349
2333
2291
2249
2211
2190
2178
2170
2175
2196
2217
2229
2236
2235
2219
2202
2185
2169
2151
2136
2118
2109
2074
2020
1978
1949
1930
1919
1912
1928
1945
1963
1972
1972
1956
1938
1918
1902
1884
1866
1847
1831
1807
1758
1721
1680
1659
1647
1639
1656
1669
1689
1698
1703
1689
1667
1657
1643
1626
1603
1593
1570
1557
1512
1468
1432
1411
1398
1390
1391
1415
1438
1451
1460
1457
1436
1420
1407
1393
1377
1361
1347
1328
1306
1251
1216
1189
1177
1168
1163
1187
1212
1224
1236
1240
1228
1214
1197
1187
1174
1158
1144
1130
1114
1061
1024
995
978
973
974
986
1013
1035
1048
1058
1049
1036
1021
1010
994
982
973
969
943
905
865
835
819
810
809
818
844
880
892
902
903
893
883
872
862
854
844
834
819
798
754
720
709
703
702
711
737
772
798
804
818
811
805
798
790
784
776
770
764
753
708
678
662
654
656
662
688
724
749
776
794
786
781
779
776
772
771
768
765
756
720
691
670
663
666
673
698
735
770
793
815
815
813
811
810
810
806
805
804
800
772
741
716
712
713
721
739
775
815
844
867
872
871
870
873
870
868
867
864
864
851
807
789
776
775
782
789
826
864
900
910
932
930
927
925
924
922
921
919
917
906
870
839
822
816
820
827
852
893
930
946
966
965
961
960
958
954
959
949
951
938
904
866
851
840
841
844
862
898
934
956
978
976
970
965
963
959
954
950
946
939
907
881
855
836
835
836
844
877
911
938
955
961
961
963
947
946
951
936
929
922
908
869
838
818
810
811
817
844
880
908
927
944
934
932
931
925
919
913
908
902
891
856
817
795
787
789
791
808
842
873
896
912
912
907
903
896
891
885
879
875
866
844
804
777
765
762
767
779
801
843
865
884
893
886
882
881
872
862
860
853
848
827
792
760
747
740
743
749
782
815
842
863
877
872
868
866
859
852
847
841
840
828
787
759
737
730
733
737
760
796
831
851
867
865
862
859
854
848
843
841
834
827
799
761
738
727
724
729
748
782
817
839
855
861
856
855
852
851
846
841
837
829
807
770
740
728
721
726
737
769
806
832
852
860
861
858
853
848
845
839
836
831
818
777
747
730
722
724
733
760
799
826
847
869
861
861
854
854
851
846
842
838
830
796
762
741
733
721
736
758
790
827
848
862
869
863
861
858
857
852
846
846
834
810
784
749
740
738
741
750
786
823
850
872
881
881
877
873
867
863
858
855
850
837
799
771
758
751
763
760
792
828
858
880
891
889
888
885
880
872
874
872
873
864
828
804
783
777
780
787
814
854
892
914
932
942
943
945
948
948
953
957
961
959
943
918
901
901
913
930
956
1002
1052
1087
1122
1145
1161
1168
1183
1196
1210
1226
1243
1254
1255
1236
1231
1237
1254
1280
1307
1362
1414
1473
1516
1549
1571
1593
1613
1632
1650
1672
1696
1716
1731
1719
1711
1716
1733
1759
1789
1836
1897
1958
1989
2033
2053
2071
2088
2103
2120
2138
2151
2166
2174
2164
2144
2139
2145
2161
2179
2211
2257
2312
2341
2374
2382
2393
2400
2404
2408
2411
2414
2426
2423
2395
2367
2342
2333
2333
2340
2348
2382
2422
2454
2464
2473
2469
2459
2454
2447
2435
2428
2418
2410
2392
2344
2308
2284
2272
2268
2258
2283
2308
2332
2342
2351
2341
2327
2312
2298
2284
2267
2251
2238
2215
2174
2126
2092
2071
2062
2055
2060
2081
2104
2114
2118
2106
2089
2074
2058
2037
2019
2002
1981
1961
1923
1873
1833
1810
1794
1783
1785
1805
1825
1839
1842
1836
1820
1803
1787
1768
1748
1733
1716
1698
1667
1615
1574
1545
1526
1515
1508
1529
1550
1565
1573
1574
1558
1542
1529
1512
1499
1480
1462
1444
1425
1379
1334
1304
1284
1279
1268
1281
1318
1326
1335
1334
1328
1314
1299
1287
1272
1258
1239
1225
1206
1164
1122
1086
1068
1056
1052
1056
1081
1105
1120
1130
1125
1114
1095
1083
1071
1057
1034
1028
1010
988
941
907
887
874
868
866
891
919
939
951
956
945
930
924
911
904
895
881
867
853
806
771
747
733
732
728
763
783
809
823
832
830
820
811
805
801
790
781
775
763
726
692
665
652
650
655
682
702
735
759
770
770
772
765
762
756
752
746
741
735
708
676
650
641
637
642
658
691
726
753
774
785
783
780
777
782
777
775
771
773
757
723
694
683
678
685
696
728
766
800
821
840
842
839
838
839
839
838
836
834
828
791
766
752
747
752
761
782
823
858
884
904
907
911
910
910
912
909
913
907
902
869
844
822
812
810
821
838
877
912
940
961
971
968
965
965
960
959
958
954
947
925
896
876
855
856
856
866
896
932
961
981
997
994
988
987
983
979
975
970
968
956
917
888
867
860
859
866
891
924
959
977
998
994
990
986
981
979
972
970
962
955
923
895
860
851
850
855
872
909
933
961
976
980
974
973
966
959
954
947
945
936
912
873
845
836
826
831
842
871
899
931
952
959
959
950
948
940
929
929
925
911
906
865
832
814
808
805
810
839
878
904
922
936
931
927
924
917
913
906
903
895
886
848
816
794
787
786
788
813
846
877
898
918
913
908
909
902
897
890
888
883
876
850
812
786
776
766
778
790
824
857
884
903
908
904
899
893
888
887
873
876
873
853
812
781
769
761
763
770
801
837
863
882
895
891
887
883
877
873
868
866
860
853
808
777
757
751
749
753
779
813
843
864
882
882
876
875
870
865
857
854
850
843
814
781
754
743
745
749
765
798
830
855
879
878
876
872
868
863
860
856
849
848
822
784
759
746
741
745
755
786
821
852
870
880
880
878
870
870
862
860
856
848
839
796
770
755
742
747
753
784
818
847
869
888
887
886
884
880
876
874
871
871
862
830
798
785
770
773
783
806
846
879
908
931
943
944
946
946
949
952
956
959
964
953
920
903
904
914
931
956
1000
1050
1088
1130
1145
1162
1176
1189
1202
1217
1233
1248
1264
1263
1248
1240
1244
1260
1281
1313
1368
1425
1476
1518
1557
1574
1590
1614
1632
1652
1669
1690
1711
1722
1709
1701
1704
1717
1740
1771
1816
1864
1925
1962
2003
2021
2038
2052
2065
2077
2092
2112
2125
2125
2114
2091
2080
2083
2094
2111
2138
2183
2236
2262
2291
2306
2310
2314
2314
2316
2317
2318
2316
2312
2299
2262
2240
2228
2225
2224
2233
2265
2301
2324
2339
2349
2340
2332
2326
2318
2306
2297
2287
2278
2260
2215
2175
2154
2136
2132
2128
2145
2171
2192
2210
2203
2198
2185
2172
2157
2142
2128
2114
2097
2075
2025
1975
1950
1929
1916
1909
1916
1938
1961
1970
1972
1965
1947
1929
1915
1899
1880
1863
1847
1829
1789
1736
1692
1675
1661
1652
1656
1669
1694
1706
1708
1709
1693
1674
1659
1640
1621
1606
1597
1572
1548
1495
1443
1422
1407
1398
1394
1410
1431
1449
1455
1457
1437
1429
1414
1401
1383
1369
1356
1337
1318
1271
1226
1196
1177
1169
1162
1175
1198
1219
1228
1238
1228
1213
1201
1185
1173
1156
1142
1126
1113
1074
1027
994
975
963
959
966
989
1014
1029
1036
1039
1023
1015
1003
987
975
959
943
935
917
874
832
813
801
799
798
821
853
878
887
896
885
874
865
856
845
835
826
816
802
758
725
702
691
687
691
714
746
771
792
801
801
794
790
784
777
769
764
759
749
717
681
656
645
644
648
665
700
734
759
774
781
777
773
769
766
754
763
766
757
734
699
673
663
662
672
686
720
756
791
807
820
820
818
819
817
815
813
814
811
802
763
739
727
725
729
745
773
807
844
865
886
885
883
884
883
882
879
881
876
874
841
811
793
791
795
805
830
870
905
929
949
955
947
953
949
949
946
943
943
937
908
877
852
848
845
852
871
906
941
971
989
993
991
991
987
985
979
978
976
973
948
915
890
880
874
878
885
926
956
986
1002
1017
1013
1008
1004
1003
994
991
991
980
972
933
901
879
873
871
875
904
938
971
990
1003
1004
1000
995
989
984
978
971
964
958
925
890
865
853
854
857
876
908
943
964
981
984
976
972
967
963
955
951
945
937
914
872
843
831
829
829
840
872
912
933
946
957
952
948
942
937
932
926
922
918
903
860
829
811
799
804
815
837
876
901
922
933
932
927
921
917
900
904
900
893
884
841
816
792
782
782
787
806
844
876
896
916
912
908
906
900
895
890
885
878
872
839
808
783
773
770
773
792
824
864
884
900
907
904
901
895
881
888
881
876
872
857
810
784
774
764
767
775
806
842
868
887
902
899
895
891
888
882
875
863
866
855
814
773
767
759
760
766
793
830
859
881
901
897
893
888
882
879
872
868
865
856
822
789
763
757
755
759
778
814
849
875
889
893
889
885
881
879
873
867
864
856
835
799
772
762
756
760
770
802
842
869
885
895
893
889
886
882
878
875
865
863
853
814
785
770
761
765
769
802
841
870
888
909
903
900
896
895
892
888
884
880
873
843
810
791
785
791
796
825
858
895
921
945
947
948
949
951
951
959
958
956
963
943
915
903
899
907
924
951
998
1045
1081
1115
1137
1153
1168
1175
1189
1203
1216
1232
1246
1247
1232
1220
1227
1242
1265
1296
1348
1408
1460
1503
1543
1564
1584
1612
1626
1646
1666
1691
1707
1722
1709
1702
1711
1726
1754
1784
1831
1890
1943
1987
2028
2050
2070
2086
2104
2121
2136
2152
2161
2177
2166
2147
2141
2149
2166
2188
2217
2265
2312
2349
2379
2396
2402
2410
2415
2419
2422
2426
2428
2428
2412
2379
2354
2346
2342
2348
2359
2394
2429
2459
2478
2486
2479
2473
2467
2466
2449
2440
2431
2425
2406
2361
2324
2299
2285
2289
2277
2296
2324
2343
2356
2363
2353
2340
2325
2311
2295
2279
2265
2250
2232
2181
2141
2107
2086
2073
2066
2073
2094
2114
2124
2128
2124
2107
2086
2071
2054
2024
2015
2000
1979
1943
1891
1849
1826
1810
1802
1800
1820
1840
1849
1848
1854
1835
1818
1800
1781
1768
1750
1736
1716
1691
1634
1592
1565
1545
1538
1533
1553
1573
1589
1595
1602
1583
1565
1549
1532
1518
1500
1486
1475
1450
1409
1361
1327
1307
1296
1289
1303
1327
1347
1358
1362
1354
1341
1324
1307
1279
1280
1265
1248
1234
1196
1150
1116
1097
1094
1083
1088
1110
1139
1154
1160
1163
1145
1132
1119
1107
1092
1078
1068
1057
1032
974
942
922
908
899
899
925
954
973
984
988
977
968
955
943
933
923
911
905
884
840
804
781
765
761
762
779
814
841
858
871
866
858
849
840
835
827
818
812
799
760
729
694
689
687
688
704
737
770
791
808
810
806
800
798
795
788
789
777
774
744
713
683
673
671
676
686
720
757
791
805
817
814
812
809
807
804
802
800
798
789
751
727
710
707
710
722
750
788
820
842
861
859
856
857
857
852
850
849
845
839
809
778
756
753
757
764
787
823
860
884
907
908
908
905
906
904
902
901
899
893
866
834
809
804
801
808
823
860
895
923
937
949
949
946
942
930
938
932
931
926
909
872
844
828
823
831
834
866
900
931
950
962
960
958
954
948
944
941
935
934
919
882
850
832
822
820
827
848
883
913
932
947
947
943
938
931
928
923
918
912
904
871
833
809
796
795
800
817
843
878
901
915
923
917
911
906
901
894
899
884
873
855
815
787
772
759
768
778
810
841
868
882
887
887
881
877
874
864
867
855
848
835
791
763
740
733
734
738
767
801
838
849
864
860
851
845
842
838
834
827
824
811
783
743
718
711
710
713
733
757
800
820
836
838
834
829
823
817
815
810
812
795
766
733
706
694
693
697
709
744
778
802
819
829
821
819
814
811
804
798
794
789
766
733
706
688
684
685
692
726
759
791
807
820
816
813
811
807
802
798
794
788
779
746
712
693
681
690
700
720
749
778
804
823
824
817
815
809
805
801
797
793
786
757
723
697
688
688
692
708
743
779
803
824
828
822
819
818
814
809
806
802
797
775
741
711
698
693
695
705
743
774
802
823
834
830
827
823
820
818
814
808
803
794
754
730
704
699
700
707
738
766
806
826
846
842
838
837
835
833
827
823
820
812
784
747
726
716
715
725
743
767
812
838
854
857
856
854
853
851
845
839
842
833
809
770
746
737
737
742
754
789
827
848
874
883
882
882
879
881
877
869
881
874
865
834
804
792
791
800
807
849
896
929
953
974
983
987
993
1000
1007
1012
1021
1028
1031
1013
992
988
995
1011
1034
1073
1121
1173
1214
1250
1273
1288
1304
1320
1343
1356
1382
1394
1406
1403
1392
1387
1400
1419
1448
1485
1542
1598
1651
1690
1721
1742
1760
1780
1803
1816
1835
1852
1869
1873
1861
1850
1857
1871
1894
1919
1974
2034
2072
2109
2138
2150
2163
2173
2184
2194
2202
2215
2222
2221
2206
2176
2165
2167
2179
2192
2225
2263
2300
2325
2349
2347
2347
2345
2344
2341
2338
2336
2336
2322
2287
2253
2231
2220
2216
2217
2234
2259
2291
2319
2323
2316
2310
2299
2289
2278
2268
2255
2245
2231
2199
2153
2121
2100
2082
2072
2076
2099
2132
2145
2145
2145
2130
2114
2098
2083
2067
2051
2044
2018
1989
1943
1900
1873
1859
1849
1840
1858
1883
1897
1903
1906
1888
1874
1858
1839
1824
1805
1791
1771
1750
1699
1662
1623
1603
1592
1586
1595
1619
1636
1648
1653
1642
1627
1613
1597
1580
1565
1554
1537
1517
1479
1431
1396
1375
1362
1356
1362
1384
1407
1420
1434
1424
1412
1397
1382
1367
1353
1338
1329
1302
1284
1233
1195
1173
1157
1153
1149
1174
1200
1220
1229
1229
1216
1203
1190
1179
1165
1151
1142
1129
1106
1061
1022
994
978
967
968
990
1016
1039
1052
1061
1053
1037
1035
1011
1001
987
976
966
953
917
874
841
827
820
819
836
861
891
905
920
917
907
899
893
888
870
857
843
841
810
773
739
725
717
719
725
754
787
809
832
831
825
819
813
805
801
796
790
787
768
714
695
677
671
671
680
708
744
771
789
803
812
798
793
795
787
784
779
776
771
738
706
682
674
678
683
708
745
780
800
821
822
820
819
815
814
813
809
808
799
779
743
720
713
712
718
739
770
806
838
854
867
865
862
861
860
857
856
852
852
836
802
775
764
760
767
774
809
851
878
898
915
914
912
912
910
917
904
901
898
888
856
821
802
799
799
804
833
867
896
918
938
939
934
936
926
921
918
916
914
904
878
841
816
807
805
812
829
865
895
920
939
945
941
939
933
933
924
920
911
907
878
848
817
806
803
803
813
847
881
893
932
938
933
929
923
916
912
907
902
895
886
845
817
796
787
790
795
826
859
889
906
921
916
914
909
904
897
897
888
882
871
841
801
777
767
768
769
792
826
856
881
893
895
894
887
885
879
873
868
862
856
837
787
759
748
746
750
763
795
836
853
870
879
875
868
865
859
853
849
845
838
817
778
754
737
732
735
739
772
809
837
854
869
865
859
853
850
847
840
836
830
818
783
750
732
721
724
726
751
788
820
842
857
859
853
846
844
841
834
829
825
818
795
753
733
720
719
723
742
775
812
836
854
859
852
847
846
841
836
834
829
825
803
761
737
732
725
727
736
773
805
842
853
867
860
854
853
851
845
849
842
837
823
784
755
737
731
734
741
772
806
835
855
871
868
864
861
856
853
848
847
841
836
804
770
747
739
740
746
773
805
840
865
877
885
884
879
877
874
869
856
862
857
831
795
768
759
755
762
775
808
847
871
890
895
893
887
891
886
880
879
875
869
854
824
786
774
768
763
780
811
838
872
900
911
912
908
904
897
902
894
891
885
879
842
811
795
787
788
802
821
856
893
915
936
934
926
926
924
921
917
914
910
902
876
841
817
808
814
813
836
862
904
928
956
952
950
947
943
941
940
939
938
930
916
881
852
843
842
849
863
900
942
972
994
1008
1014
1013
1015
1018
1021
1025
1030
1033
1030
999
983
973
979
991
1010
1048
1097
1143
1174
1206
1217
1228
1241
1253
1264
1279
1290
1298
1310
1295
1280
1278
1286
1313
1330
1370
1424
1482
1519
1557
1579
1594
1612
1629
1647
1664
1678
1695
1708
1702
1685
1681
1685
1706
1726
1763
1814
1866
1910
1947
1969
1984
1993
2007
2018
2031
2044
2051
2061
2060
2032
2019
2013
2020
2033
2050
2093
2135
2177
2201
2221
2226
2231
2228
2233
2231
2231
2228
2227
2221
2186
2154
2138
2130
2134
2139
2162
2193
2230
2245
2261
2263
2246
2243
2233
2225
2214
2207
2199
2184
2152
2115
2080
2066
2058
2057
2066
2092
2118
2135
2148
2144
2127
2116
2103
2091
2078
2063
2050
2034
1997
1949
1917
1894
1880
1876
1872
1895
1929
1937
1945
1943
1929
1916
1902
1884
1875
1855
1837
1819
1801
1754
1711
1682
1666
1647
1653
1671
1694
1715
1724
1727
1718
1707
1691
1677
1663
1647
1630
1615
1601
1555
1512
1480
1462
1454
1446
1456
1481
1508
1519
1527
1519
1503
1489
1476
1462
1447
1436
1422
1407
1385
1330
1292
1273
1264
1260
1264
1283
1312
1329
1340
1333
1323
1312
1300
1279
1276
1264
1252
1242
1217
1171
1132
1108
1095
1091
1090
1112
1141
1161
1172
1179
1171
1156
1146
1147
1122
1113
1100
1091
1074
1032
993
966
954
946
945
963
1001
1015
1036
1052
1043
1030
1021
1018
1003
994
984
975
963
933
892
862
848
843
843
860
881
918
939
957
956
949
945
937
932
925
920
901
905
883
847
811
798
792
793
797
831
865
892
912
922
918
916
911
906
902
900
895
891
881
840
814
796
791
793
800
828
859
895
915
935
934
932
930
928
926
923
920
918
908
880
848
828
816
825
832
854
890
925
951
974
978
973
975
973
973
972
968
964
962
938
903
882
869
867
875
887
921
961
986
1006
1020
1018
1017
1014
1013
1005
1008
1003
1000
988
949
922
906
900
903
911
942
981
1003
1027
1044
1041
1041
1035
1034
1032
1030
1025
1021
1013
979
944
923
919
916
918
942
976
1006
1030
1046
1048
1045
1042
1037
1031
1026
1021
1020
1011
983
951
922
911
906
908
922
956
989
1014
1038
1041
1033
1028
1022
1017
1008
1006
1002
991
978
938
906
894
887
887
893
924
958
986
999
1013
1009
1005
1003
996
989
982
978
974
962
926
890
871
863
864
864
889
923
951
971
989
987
981
976
970
967
961
952
943
941
909
879
846
840
835
840
856
890
921
942
956
965
962
955
951
948
945
938
934
927
908
867
840
826
819
812
830
863
896
917
940
949
946
942
937
933
929
925
923
915
902
859
833
813
804
815
813
843
876
906
927
943
941
933
934
931
925
913
914
913
899
859
833
809
799
801
804
825
859
890
913
928
935
931
928
922
917
911
907
904
898
872
837
809
798
799
801
815
849
883
907
926
934
930
933
925
922
917
916
913
907
887
854
824
810
804
809
815
846
882
912
928
943
942
938
937
935
928
925
923
915
910
875
843
822
816
816
821
844
881
912
935
950
956
951
949
944
942
936
934
930
921
895
859
832
824
826
832
847
879
917
943
958
965
963
961
957
952
948
949
943
941
924
892
854
838
834
839
846
880
921
943
967
978
973
971
969
967
960
960
954
952
940
903
873
855
846
850
858
883
922
950
972
990
987
985
982
982
976
966
971
971
958
929
895
872
865
866
871
895
927
959
990
1005
1010
1010
1005
1006
1003
998
998
994
990
970
938
914
909
911
915
939
973
1013
1047
1072
1085
1091
1094
1099
1104
1107
1105
1117
1122
1119
1092
1072
1066
1072
1091
1106
1149
1201
1241
1275
1305
1316
1329
1340
1352
1369
1378
1390
1405
1411
1393
1381
1378
1386
1406
1430
1473
1529
1578
1618
1659
1670
1691
1704
1721
1734
1747
1764
1774
1789
1779
1759
1750
1761
1779
1797
1826
1875
1926
1966
1986
2017
2029
2037
2050
2055
2069
2074
2081
2084
2076
2045
2029
2027
2027
2037
2054
2092
2131
2166
2191
2208
2208
2210
2209
2207
2205
2202
2200
2198
2190
2154
2121
2102
2096
2095
2100
2122
2158
2186
2204
2213
2208
2200
2193
2185
2175
2164
2156
2147
2133
2107
2056
2024
2008
2000
2000
2010
2038
2066
2079
2087
2081
2072
2057
2045
2033
2018
2003
1987
1985
1938
1897
1862
1839
1832
1821
1823
1847
1862
1888
1889
1894
1880
1868
1851
1847
1820
1810
1794
1779
1760
1707
1666
1643
1626
1617
1613
1631
1659
1683
1688
1695
1679
1668
1657
1643
1630
1617
1602
1590
1572
1527
1489
1457
1438
1436
1429
1442
1469
1493
1506
1514
1508
1495
1479
1471
1456
1442
1431
1415
1403
1362
1325
1292
1274
1264
1260
1265
1289
1320
1333
1343
1343
1329
1320
1309
1296
1283
1271
1259
1251
1220
1174
1144
1120
1107
1101
1101
1129
1160
1175
1186
1194
1181
1171
1157
1149
1140
1128
1124
1108
1090
1049
1010
985
970
978
969
988
1019
1045
1059
1069
1064
1053
1045
1037
1027
1019
1010
1000
988
953
914
887
872
868
868
883
915
946
963
978
981
974
967
961
957
951
947
937
929
905
864
837
823
818
812
828
860
893
919
938
952
945
941
938
932
928
922
920
920
902
863
829
815
809
813
819
849
875
917
939
956
955
956
950
948
942
944
942
938
931
898
869
848
840
840
847
870
907
939
966
984
990
987
991
981
982
978
971
980
970
948
910
885
877
874
881
895
929
966
993
1013
1024
1025
1018
1013
1016
1011
1016
1007
1004
992
954
919
907
902
906
912
943
982
1008
1031
1049
1039
1037
1032
1028
1022
1022
1018
1012
1002
970
934
917
904
909
907
936
972
1005
1026
1045
1046
1040
1036
1032
1024
1020
1017
1011
1001
972
937
908
896
905
897
914
945
977
1002
1018
1022
1022
1017
1011
1005
999
992
989
984
963
924
902
878
871
872
879
910
946
969
994
1002
995
990
985
979
974
965
961
960
946
900
872
857
845
846
851
878
913
951
961
978
972
966
963
958
956
949
943
934
926
897
861
833
825
820
823
837
874
907
927
946
948
943
942
937
931
926
922
919
909
887
850
824
809
805
809
821
851
889
912
927
941
931
929
924
918
912
910
903
897
882
844
815
801
788
793
797
825
859
888
908
921
914
913
913
907
905
898
893
894
879
845
812
793
781
783
787
811
844
877
898
916
918
914
912
905
901
899
895
892
887
859
823
796
779
783
787
801
834
863
898
915
921
915
911
912
896
899
898
896
891
872
835
807
794
789
792
800
833
867
895
915
927
922
918
917
914
909
907
904
898
887
850
814
799
794
796
803
828
865
898
917
938
945
935
932
930
925
922
916
913
907
887
846
821
814
817
817
835
870
916
931
951
955
959
954
951
948
943
940
934
931
903
872
843
832
831
834
845
878
915
945
963
972
972
966
962
958
959
958
954
946
940
900
875
857
851
855
862
890
928
957
977
994
991
987
987
981
987
974
972
972
960
929
896
874
867
868
867
893
932
970
990
1010
1012
1009
1007
1003
1000
995
996
986
983
957
914
896
887
883
883
903
934
969
994
1015
1028
1022
1018
1017
1015
1011
1008
1007
1002
987
946
920
904
899
905
911
942
977
1007
1028
1044
1039
1037
1033
1031
1028
1016
1023
1019
1008
975
945
928
920
924
930
956
991
1028
1052
1071
1072
1073
1069
1069
1071
1069
1070
1078
1065
1040
1004
996
992
996
1007
1024
1073
1121
1148
1175
1188
1194
1201
1207
1215
1224
1233
1242
1247
1243
1217
1205
1206
1216
1234
1259
1308
1364
1406
1442
1473
1488
1503
1518
1534
1549
1561
1578
1593
1600
1581
1571
1571
1592
1608
1633
1679
1734
1784
1825
1860
1877
1889
1906
1917
1934
1943
1963
1975
1984
1970
1951
1945
1953
1969
1991
2024
2067
2120
2149
2181
2199
2208
2216
2221
2229
2233
2236
2243
2246
2236
2208
2176
2176
2177
2188
2203
2239
2278
2305
2329
2343
2340
2337
2335
2332
2327
2326
2316
2313
2300
2257
2225
2207
2196
2197
2198
2225
2255
2278
2295
2310
2306
2289
2280
2271
2258
2249
2239
2227
2211
2172
2130
2099
2084
2076
2074
2090
2114
2141
2150
2150
2152
2137
2123
2114
2100
2085
2070
2057
2040
1995
1958
1922
1900
1890
1887
1888
1913
1937
1952
1958
1962
1942
1928
1913
1901
1887
1872
1849
1838
1812
1763
1728
1701
1687
1680
1677
1697
1722
1741
1747
1753
1741
1727
1713
1698
1686
1671
1659
1643
1623
1577
1534
1509
1491
1484
1480
1498
1525
1546
1557
1565
1553
1541
1532
1516
1503
1491
1479
1466
1450
1416
1371
1336
1321
1312
1307
1318
1342
1367
1381
1384
1390
1372
1364
1347
1336
1324
1313
1300
1285
1257
1209
1173
1155
1134
1140
1141
1170
1196
1216
1225
1228
1219
1208
1197
1188
1175
1162
1156
1144
1126
1079
1044
1024
1008
1005
1004
1022
1056
1083
1098
1105
1100
1089
1080
1074
1061
1050
1043
1035
1020
975
946
919
905
903
903
922
955
983
1000
1017
1010
1007
1002
995
991
981
978
974
961
931
893
867
854
849
851
867
897
934
958
971
981
977
972
967
963
960
957
954
944
932
892
862
849
840
849
854
889
937
951
976
986
985
980
977
976
974
974
967
962
954
920
891
868
863
865
871
898
935
967
986
1002
1006
1007
1001
1000
997
992
995
987
979
951
916
893
885
884
888
906
941
978
1002
1023
1030
1022
1027
1020
1014
1014
1009
1003
996
978
938
913
899
896
900
908
941
977
1009
1024
1035
1032
1028
1024
1021
1012
1011
1006
1001
990
950
918
900
893
893
900
928
962
999
1011
1026
1022
1018
1013
1007
1002
1001
994
987
977
945
911
883
876
872
876
895
924
952
983
1001
1000
995
988
982
977
973
968
962
955
932
895
863
850
845
845
855
888
922
947
961
972
968
962
956
943
945
941
932
926
909
870
836
820
811
815
808
850
884
914
931
947
941
933
928
922
917
911
905
899
888
855
820
797
785
778
787
811
850
874
893
906
916
906
900
896
890
883
880
875
867
844
802
775
763
759
765
778
811
836
869
885
894
890
885
880
876
870
865
862
864
832
795
765
751
745
747
751
784
816
846
864
883
874
870
865
860
854
850
836
842
833
789
762
741
730
733
738
761
794
827
848
861
864
857
857
852
847
842
837
832
825
794
759
734
726
724
731
748
785
813
837
852
861
855
853
850
846
843
840
835
832
808
770
746
737
730
733
740
773
801
837
861
870
865
864
862
856
853
848
844
841
830
791
765
743
736
737
742
772
808
840
859
880
876
876
873
864
866
864
859
858
855
816
780
756
750
750
755
780
813
846
873
889
894
892
889
886
883
881
876
874
869
843
805
781
760
765
776
792
821
857
881
905
910
910
906
904
900
898
893
891
884
875
836
809
788
790
801
802
835
868
898
920
936
933
932
927
926
922
919
914
907
902
868
836
821
811
821
817
845
881
913
938
953
953
951
950
950
943
943
939
931
929
901
869
839
836
835
838
856
891
927
950
970
976
975
972
970
967
963
958
957
955
931
894
866
857
853
858
866
898
936
969
985
996
995
993
990
986
979
978
974
971
960
921
894
878
870
874
878
908
943
973
998
1020
1013
1010
1009
1002
998
998
992
990
983
953
926
898
891
892
898
919
951
988
1010
1028
1033
1034
1031
1026
1023
1020
1016
1015
1011
991
954
931
922
922
930
943
977
1016
1048
1074
1084
1086
1085
1087
1090
1091
1093
1093
1099
1094
1061
1041
1033
1037
1049
1066
1107
1154
1195
1226
1255
1266
1276
1285
1296
1306
1310
1330
1338
1350
1330
1312
1310
1316
1335
1359
1399
1451
1501
1542
1581
1601
1616
1634
1656
1666
1680
1694
1711
1724
1714
1701
1695
1704
1715
1743
1779
1830
1883
1927
1968
1994
2001
2016
2028
2041
2054
2066
2074
2085
2080
2058
2041
2041
2047
2059
2082
2124
2170
2207
2234
2258
2262
2266
2267
2272
2276
2278
2280
2286
2275
2240
2210
2197
2191
2196
2202
2230
2267
2294
2316
2331
2333
2325
2324
2318
2311
2304
2297
2290
2279
2242
2206
2177
2165
2151
2159
2170
2195
2222
2239
2252
2250
2240
2230
2216
2205
2193
2182
2170
2157
2129
2081
2045
2023
2010
2004
2004
2027
2053
2063
2085
2091
2065
2056
2039
2027
2019
2000
1982
1970
1948
1894
1859
1830
1810
1804
1799
1818
1841
1862
1871
1883
1866
1853
1840
1825
1812
1794
1781
1767
1748
1704
1660
1626
1608
1598
1593
1604
1627
1650
1662
1663
1659
1650
1638
1626
1615
1599
1586
1572
1557
1514
1475
1437
1420
1406
1397
1405
1427
1463
1471
1479
1481
1468
1454
1441
1430
1416
1404
1391
1380
1352
1304
1267
1242
1231
1221
1223
1245
1272
1291
1305
1311
1300
1284
1277
1266
1253
1242
1219
1216
1201
1161
1120
1090
1076
1068
1069
1082
1114
1134
1149
1156
1154
1146
1138
1127
1121
1104
1092
1087
1072
1040
1000
976
954
947
945
956
983
1011
1031
1045
1049
1043
1032
1024
1014
1005
995
985
977
962
915
882
865
855
858
862
886
923
947
965
981
974
967
960
955
953
947
942
942
925
888
857
834
832
830
836
860
896
926
948
963
968
964
963
957
952
949
945
943
935
912
874
850
841
841
852
866
899
936
960
979
994
985
984
982
979
978
974
971
958
948
912
885
873
869
875
882
924
953
981
1001
1014
1012
1009
1007
1007
1003
1000
997
993
983
946
917
900
895
896
903
938
969
1003
1021
1039
1035
1034
1032
1028
1027
1024
1019
1015
1007
975
941
914
905
905
920
928
965
996
1022
1039
1042
1038
1032
1031
1025
1019
1014
1012
996
973
941
912
902
896
900
910
939
983
1002
1012
1028
1022
1019
1009
1006
997
993
986
979
970
924
890
875
866
868
872
896
933
950
978
995
990
986
983
975
971
964
958
950
940
905
871
849
839
840
841
860
893
925
943
961
959
954
948
943
936
930
925
920
914
888
847
818
807
802
804
814
846
886
908
922
929
924
917
916
906
900
896
891
884
870
821
799
783
774
776
782
811
842
875
892
902
903
896
892
886
880
876
873
865
857
822
789
760
756
757
759
782
816
847
869
884
886
879
873
873
864
860
856
848
846
816
778
754
745
742
746
768
797
829
850
869
873
872
866
861
859
855
847
843
838
816
779
753
739
735
748
748
782
820
849
871
881
878
871
868
863
859
855
851
840
837
796
765
746
740
741
749
774
811
841
857
877
875
871
867
866
860
858
853
851
841
811
778
755
747
750
752
773
811
843
866
881
888
881
880
877
874
868
864
863
856
835
794
765
758
755
759
771
803
841
864
888
898
894
890
887
887
882
880
875
870
855
819
791
775
768
775
782
806
849
880
900
916
916
912
908
906
902
899
896
895
887
850
821
800
794
798
806
828
863
893
919
936
940
936
933
930
928
924
924
918
913
890
854
830
816
820
825
840
875
912
938
961
967
963
959
956
954
950
949
947
943
917
888
862
850
844
849
857
893
929
956
976
993
990
986
984
981
981
973
975
970
958
923
891
875
870
876
882
910
944
975
999
1017
1020
1015
1013
1010
1006
1002
1000
998
987
960
926
904
895
898
902
922
956
995
1011
1029
1040
1034
1033
1029
1026
1021
1018
1013
1011
991
952
926
913
910
913
921
957
995
1024
1044
1057
1055
1051
1046
1043
1040
1036
1042
1033
1018
981
953
934
930
931
940
971
1006
1038
1058
1075
1079
1073
1073
1070
1067
1067
1063
1061
1054
1029
996
978
969
974
983
1006
1047
1086
1114
1129
1144
1147
1148
1152
1155
1156
1162
1165
1165
1157
1120
1112
1110
1115
1132
1159
1205
1251
1290
1322
1346
1356
1369
1378
1392
1403
1416
1428
1439
1444
1423
1410
1413
1426
1450
1475
1522
1577
1625
1661
1696
1714
1731
1746
1763
1778
1796
1808
1824
1833
1818
1804
1799
1813
1834
1855
1896
1950
1998
2036
2071
2084
2094
2106
2116
2127
2139
2147
2158
2161
2145
2119
2106
2107
2115
2131
2157
2198
2239
2272
2295
2307
2311
2314
2314
2314
2314
2307
2319
2314
2295
2257
2232
2219
2214
2217
2225
2250
2288
2314
2329
2347
2333
2326
2318
2310
2300
2292
2281
2273
2258
2214
2178
2154
2139
2127
2132
2155
2176
2200
2207
2221
2212
2201
2187
2173
2164
2150
2133
2123
2106
2071
2022
1986
1968
1958
1952
1950
1982
2005
2017
2021
2017
2005
1990
1975
1959
1943
1927
1913
1894
1865
1816
1776
1752
1737
1727
1727
1749
1773
1795
1798
1799
1777
1769
1754
1748
1724
1708
1690
1677
1658
1607
1570
1540
1524
1514
1507
1523
1554
1570
1581
1589
1578
1562
1548
1535
1518
1505
1491
1479
1461
1422
1374
1343
1326
1316
1308
1321
1347
1373
1383
1391
1386
1374
1359
1348
1336
1322
1313
1297
1284
1252
1202
1175
1153
1145
1139
1143
1167
1189
1216
1225
1212
1211
1198
1189
1178
1164
1152
1142
1130
1108
1067
1025
1002
990
985
987
1010
1038
1061
1072
1083
1073
1064
1054
1044
1035
1024
1016
1009
993
954
918
891
879
875
875
893
923
951
969
978
983
974
966
960
955
946
940
933
923
898
855
825
815
811
813
826
859
893
915
930
941
935
931
926
922
916
909
906
902
884
847
819
808
801
806
813
844
884
911
932
945
945
943
942
939
937
934
932
930
923
877
858
842
836
842
851
875
915
948
971
991
991
990
989
986
983
983
980
978
972
946
915
894
885
886
895
914
949
985
1013
1031
1036
1036
1034
1030
1029
1026
1022
1019
1015
1005
962
934
926
920
927
935
971
1006
1036
1058
1067
1066
1065
1060
1056
1053
1050
1047
1041
1032
994
960
947
937
939
943
968
1007
1033
1054
1077
1076
1064
1059
1058
1050
1048
1040
1041
1026
995
957
934
924
922
926
947
980
1012
1034
1050
1050
1044
1041
1035
1031
1025
1019
1014
1006
982
940
912
900
894
896
908
943
973
995
1017
1022
1015
1009
1005
1004
999
991
987
979
962
923
891
873
865
863
869
898
931
959
974
987
984
978
976
969
962
954
950
944
932
898
864
844
832
832
837
857
889
920
940
957
956
952
944
938
930
926
921
924
912
880
845
817
805
802
807
821
852
887
907
926
929
927
922
918
913
908
901
894
891
875
834
805
791
784
787
791
823
851
883
897
913
910
905
901
894
888
883
879
875
862
825
794
769
766
768
771
800
832
863
882
895
898
895
892
887
884
877
872
870
860
828
794
769
758
758
765
778
816
851
874
900
896
894
889
883
879
875
872
869
863
850
803
778
766
763
763
774
810
845
873
891
905
899
897
893
890
887
880
878
873
862
825
793
777
770
772
779
805
840
874
891
908
908
903
900
895
894
888
890
885
876
849
811
788
779
781
786
808
849
879
900
925
925
919
916
916
911
908
905
901
895
875
840
813
802
801
804
823
856
892
921
939
950
946
942
938
935
932
927
927
917
907
869
844
828
823
827
833
864
902
932
954
974
971
968
963
961
959
957
953
950
943
909
886
857
851
853
859
880
920
951
973
994
998
994
989
990
988
981
982
979
974
948
912
888
879
876
882
897
932
967
996
1010
1022
1019
1016
1014
1011
1008
1005
1005
997
985
945
919
905
899
907
911
946
982
1011
1033
1046
1044
1040
1036
1034
1031
1024
1029
1022
1016
980
950
930
921
923
929
951
992
1018
1045
1059
1065
1065
1061
1058
1051
1050
1045
1044
1038
1011
975
951
940
938
939
959
994
1029
1056
1076
1086
1081
1082
1075
1073
1071
1069
1065
1064
1047
1008
985
973
971
979
991
1024
1061
1091
1113
1131
1133
1133
1134
1133
1137
1140
1141
1143
1140
1112
1088
1074
1078
1091
1106
1142
1186
1225
1259
1288
1297
1311
1318
1326
1332
1349
1361
1372
1380
1376
1350
1342
1351
1369
1392
1429
1482
1534
1578
1616
1641
1658
1674
1690
1710
1724
1742
1758
1774
1775
1755
1750
1758
1774
1798
1824
1878
1934
1979
2018
2052
2067
2084
2097
2111
2123
2138
2152
2163
2167
2144
2127
2128
2134
2151
2170
2208
2254
2297
2329
2356
2367
2373
2377
2382
2389
2389
2392
2397
2394
2371
2343
2322
2318
2321
2327
2343
2385
2419
2444
2454
2466
2462
2453
2450
2445
2436
2430
2423
2414
2387
2345
2313
2297
2291
2287
2293
2317
2341
2366
2377
2378
2372
2359
2346
2334
2322
2309
2296
2284
2262
2213
2170
2143
2126
2124
2114
2129
2153
2177
2180
2185
2173
2157
2143
2132
2110
2096
2081
2065
2045
2003
1956
1923
1902
1894
1884
1893
1914
1925
1949
1955
1946
1930
1914
1896
1883
1864
1855
1835
1816
1775
1732
1694
1673
1658
1651
1652
1672
1695
1713
1715
1716
1703
1689
1673
1660
1645
1628
1613
1600
1576
1524
1485
1459
1443
1433
1429
1450
1477
1496
1505
1513
1499
1484
1471
1457
1444
1428
1418
1406
1384
1339
1296
1269
1253
1243
1240
1256
1280
1303
1317
1323
1322
1307
1294
1282
1269
1254
1242
1230
1215
1185
1137
1102
1086
1074
1070
1077
1102
1130
1144
1156
1147
1146
1134
1125
1112
1100
1081
1079
1065
1035
1000
966
943
932
930
930
958
987
1007
1022
1032
1026
1012
1005
996
987
980
970
962
947
908
870
849
840
836
838
860
893
927
937
954
949
943
935
931
921
918
912
911
895
870
831
803
796
796
800
816
853
881
907
924
932
929
925
918
913
912
908
895
895
884
846
819
809
807
813
820
852
891
922
942
959
959
957
955
949
950
944
943
941
933
895
868
850
847
860
859
890
917
957
983
998
1010
999
1002
992
993
992
992
989
978
955
923
901
893
894
901
927
958
993
1017
1027
1041
1042
1039
1036
1033
1030
1026
1024
1018
997
958
934
920
919
924
933
974
1004
1025
1054
1061
1056
1057
1051
1046
1044
1039
1030
1019
1016
974
944
926
919
924
930
955
994
1024
1045
1061
1058
1055
1050
1045
1037
1035
1031
1024
1014
981
945
919
911
912
915
937
969
1002
1020
1034
1039
1033
1027
1023
1019
1011
1007
995
993
964
924
899
891
875
889
895
923
962
982
997
1009
1001
991
990
983
978
972
965
956
941
899
869
854
846
846
851
880
918
946
960
972
966
962
957
948
937
941
933
927
914
876
844
824
814
814
819
839
870
903
923
940
942
934
931
925
921
914
909
906
896
864
829
805
791
790
792
808
838
872
892
911
919
905
909
904
899
893
894
881
881
861
819
796
772
772
772
777
809
843
869
887
901
897
898
889
886
882
879
871
870
854
815
790
764
758
760
764
786
823
853
876
890
893
889
887
882
879
877
881
872
857
830
791
767
756
754
757
770
808
842
869
887
890
888
885
882
878
871
869
863
859
841
793
772
763
759
762
768
802
839
867
886
896
894
892
888
886
880
876
878
871
861
822
786
773
768
770
777
803
839
875
893
910
908
904
902
898
895
891
886
884
878
852
819
792
784
783
788
803
840
869
897
917
922
920
916
915
913
909
904
900
898
872
840
813
802
798
799
812
847
882
906
926
940
939
937
932
930
927
923
922
919
908
873
843
829
823
826
833
859
899
930
951
969
968
964
964
960
957
956
950
951
944
919
881
859
852
853
861
882
917
952
976
995
999
996
992
991
989
988
985
986
980
957
922
895
885
884
890
899
935
972
998
1015
1028
1032
1025
1026
1019
1015
1013
1010
1012
992
955
929
916
910
914
921
952
991
1019
1041
1061
1057
1054
1053
1047
1042
1042
1034
1040
1025
994
960
939
931
935
941
963
1000
1030
1054
1065
1077
1075
1072
1071
1071
1060
1057
1056
1048
1028
992
967
957
956
961
978
1012
1043
1072
1094
1102
1096
1095
1092
1090
1082
1081
1077
1073
1061
1022
1000
983
979
983
989
1029
1058
1091
1112
1131
1131
1128
1129
1127
1127
1128
1126
1126
1122
1087
1066
1050
1047
1052
1065
1094
1137
1171
1204
1228
1241
1246
1251
1257
1269
1275
1282
1296
1295
1283
1261
1250
1255
1268
1286
1321
1374
1424
1467
1496
1531
1546
1560
1578
1593
1612
1627
1645
1666
1665
1650
1645
1653
1667
1696
1725
1778
1834
1882
1930
1962
1982
2001
2017
2036
2052
2070
2085
2102
2111
2093
2082
2083
2092
2114
2137
2181
2231
2279
2310
2346
2361
2373
2385
2395
2404
2411
2424
2422
2427
2409
2381
2366
2367
2374
2385
2411
2448
2489
2518
2536
2549
2550
2547
2548
2544
2547
2536
2531
2524
2504
2458
2434
2419
2412
2416
2420
2447
2480
2500
2514
2512
2510
2499
2492
2481
2467
2453
2442
2430
2413
2361
2326
2298
2283
2274
2265
2285
2311
2330
2339
2336
2330
2312
2297
2281
2261
2249
2233
2216
2199
2154
2105
2070
2050
2037
2029
2035
2055
2079
2087
2086
2091
2066
2051
2035
2019
2001
1983
1969
1949
1913
1863
1825
1801
1782
1774
1767
1791
1813
1831
1833
1834
1820
1803
1788
1774
1755
1739
1723
1711
1682
1631
1582
1561
1542
1534
1529
1546
1569
1588
1595
1599
1588
1572
1556
1541
1523
1510
1495
1481
1459
1415
1383
1342
1326
1319
1311
1325
1350
1370
1383
1389
1383
1370
1354
1340
1327
1310
1298
1283
1269
1234
1188
1153
1133
1122
1119
1131
1149
1172
1188
1205
1195
1185
1175
1163
1151
1137
1128
1114
1103
1080
1032
997
975
964
957
957
981
1011
1029
1044
1053
1042
1031
1022
1014
1002
991
981
967
955
930
879
856
842
841
843
858
889
916
935
948
949
939
928
925
916
908
901
894
886
860
820
793
782
778
780
792
822
860
883
901
907
903
899
896
891
886
882
883
876
858
814
791
781
774
772
785
821
857
886
905
920
920
917
915
912
911
906
905
903
893
860
823
814
813
816
826
856
890
923
950
968
972
971
969
968
968
965
964
961
956
932
898
875
870
872
878
899
938
972
1000
1019
1027
1027
1025
1023
1022
1017
1013
1013
1007
990
953
928
916
914
920
929
967
1000
1030
1049
1064
1060
1059
1055
1052
1049
1044
1041
1039
1026
988
959
942
933
935
941
970
1006
1037
1056
1079
1066
1068
1066
1063
1058
1055
1049
1042
1031
999
962
938
932
932
932
953
993
1017
1041
1057
1059
1057
1051
1046
1041
1035
1031
1024
1017
988
949
925
912
906
908
921
950
984
1008
1021
1032
1026
1022
1015
1009
1002
997
992
983
966
920
896
876
872
872
876
904
940
963
984
1001
994
988
980
978
969
963
957
951
936
904
867
844
835
832
839
860
893
923
943
957
959
954
949
942
935
932
924
907
911
886
845
818
807
804
807
821
852
884
906
925
931
926
920
915
908
900
896
890
881
866
827
798
783
779
778
785
818
850
875
895
909
907
901
898
890
887
881
882
874
862
821
794
774
766
768
771
793
831
858
878
889
896
890
886
880
876
870
867
869
855
825
780
765
757
757
760
777
812
845
869
887
894
888
887
883
879
875
870
864
860
840
801
775
764
758
762
763
803
838
858
886
897
894
892
888
885
879
875
872
864
854
814
784
767
761
764
770
800
829
863
884
901
894
897
894
886
887
882
875
873
868
836
807
780
767
775
782
801
836
869
895
914
916
912
911
907
904
909
898
894
889
875
828
803
793
791
799
812
844
881
908
926
937
933
930
928
926
923
918
914
910
896
860
829
816
811
815
823
853
890
924
946
960
960
959
959
954
951
951
948
942
935
901
873
850
842
851
856
876
914
948
968
989
989
987
985
986
982
979
976
973
969
941
918
884
875
879
884
901
936
970
1000
1016
1026
1021
1019
1016
1014
1010
1010
1003
998
986
948
920
909
904
908
918
952
989
1017
1037
1043
1048
1048
1044
1042
1039
1034
1030
1028
1017
980
951
933
926
927
936
958
1000
1034
1054
1069
1070
1068
1066
1064
1061
1056
1054
1050
1041
1020
980
958
951
952
955
977
1009
1044
1070
1088
1097
1094
1093
1090
1086
1083
1078
1077
1066
1049
1014
989
979
976
982
992
1026
1062
1090
1114
1121
1119
1118
1110
1111
1107
1106
1100
1102
1092
1052
1025
1011
1007
1015
1024
1060
1099
1130
1153
1175
1178
1179
1182
1185
1186
1188
1192
1194
1195
1170
1145
1134
1138
1152
1167
1202
1248
1296
1332
1364
1382
1393
1406
1418
1430
1441
1461
1470
1483
1477
1461
1456
1465
1482
1508
1544
1597
1654
1703
1740
1775
1796
1816
1834
1855
1876
1895
1912
1930
1939
1924
1918
1925
1943
1967
1989
2046
2105
2152
2192
2227
2244
2261
2280
2305
2309
2324
2337
2351
2358
2338
2326
2320
2328
2342
2362
2396
2447
2487
2518
2545
2555
2560
2566
2568
2574
2575
2576
2576
2576
2554
2516
2495
2485
2487
2494
2509
2545
2578
2601
2617
2623
2617
2611
2601
2592
2586
2577
2568
2558
2535
2489
2452
2431
2418
2413
2409
2439
2461
2481
2490
2493
2476
2465
2449
2435
2419
2407
2389
2373
2351
2304
2263
2225
2209
2197
2183
2201
2226
2245
2253
2254
2244
2226
2210
2191
2174
2156
2137
2126
2098
2050
2006
1968
1944
1930
1919
1924
1941
1963
1972
1972
1972
1951
1934
1917
1901
1881
1864
1847
1830
1796
1745
1704
1679
1662
1656
1647
1667
1689
1703
1709
1708
1693
1679
1663
1646
1628
1613
1603
1577
1554
1501
1459
1430
1413
1403
1396
1411
1436
1460
1465
1471
1457
1445
1434
1417
1402
1387
1371
1355
1339
1299
1251
1221
1201
1191
1175
1195
1218
1240
1254
1263
1257
1245
1231
1218
1205
1185
1177
1165
1146
1114
1073
1036
1016
1005
1001
1003
1030
1057
1077
1087
1089
1082
1067
1054
1044
1033
1021
1009
1000
978
945
897
875
863
861
862
883
915
939
957
969
960
951
942
935
925
916
906
903
889
852
818
792
783
783
785
803
837
864
889
904
903
899
895
891
885
879
875
869
864
832
800
780
753
764
770
782
819
855
878
896
911
906
907
904
903
901
898
897
893
881
842
818
809
804
812
820
854
892
917
947
964
966
966
966
965
962
964
963
962
953
919
893
877
872
878
883
911
947
979
1007
1028
1033
1034
1034
1035
1031
1030
1029
1028
1024
993
965
940
934
940
946
966
1005
1040
1067
1089
1097
1094
1093
1084
1086
1086
1082
1084
1079
1069
1014
993
981
981
983
991
1027
1065
1094
1112
1125
1123
1119
1112
1110
1107
1101
1099
1096
1078
1038
1009
992
985
983
988
1017
1051
1077
1097
1116
1111
1107
1109
1099
1093
1086
1082
1074
1067
1034
1005
971
960
957
962
980
1011
1048
1068
1082
1085
1079
1074
1068
1061
1056
1047
1042
1036
1010
971
942
926
922
925
930
961
1000
1020
1036
1046
1043
1035
1028
1025
1015
1010
1011
995
982
943
908
888
882
880
887
912
946
974
991
1007
1003
1002
990
985
979
974
968
963
951
914
878
855
845
845
846
866
901
932
953
958
970
963
959
949
946
941
936
927
922
894
855
827
814
823
815
826
861
896
919
938
944
938
933
925
921
915
912
904
897
884
842
814
798
790
794
799
830
863
893
912
925
921
916
913
909
902
897
895
889
879
832
821
791
785
786
793
816
849
882
902
914
919
914
912
909
904
899
897
892
884
860
821
793
783
781
785
802
836
873
895
913
922
921
916
910
907
903
898
897
893
870
833
805
793
787
790
799
833
872
901
922
933
932
925
927
921
920
911
906
904
895
858
827
809
801
799
810
834
871
902
923
936
943
938
935
934
930
927
922
920
913
885
852
827
818
818
823
842
877
912
936
957
964
959
958
953
944
945
941
937
937
918
882
850
835
841
843
853
890
924
950
972
987
985
982
977
973
969
968
963
958
949
914
885
864
861
861
877
895
931
965
986
1007
1002
998
992
992
989
985
984
985
973
944
911
887
878
880
886
906
941
976
999
1017
1024
1019
1018
1016
1013
1009
1004
1005
1001
981
935
916
901
902
908
918
952
988
1018
1038
1047
1046
1041
1036
1035
1031
1028
1024
1021
1006
972
941
926
925
930
936
967
1003
1040
1060
1083
1077
1080
1080
1080
1076
1078
1079
1078
1075
1044
1019
1001
999
1010
1022
1052
1092
1133
1164
1180
1205
1211
1222
1232
1239
1249
1258
1268
1277
1271
1257
1238
1245
1262
1290
1315
1367
1419
1465
1503
1536
1554
1575
1589
1610
1627
1645
1664
1683
1693
1678
1675
1681
1701
1729
1760
1817
1877
1927
1973
2014
2035
2056
2072
2092
2110
2130
2148
2164
2177
2165
2152
2151
2164
2184
2208
2251
2301
2358
2389
2423
2442
2454
2463
2474
2484
2493
2499
2508
2513
2497
2472
2452
2452
2461
2471
2494
2532
2570
2601
2625
2635
2634
2630
2631
2630
2624
2620
2616
2610
2594
2561
2522
2504
2495
2492
2495
2523
2551
2572
2586
2596
2587
2575
2562
2552
2538
2524
2511
2498
2478
2431
2389
2358
2339
2333
2324
2336
2356
2381
2388
2395
2382
2366
2350
2334
2317
2299
2284
2266
2245
2204
2154
2116
2093
2076
2065
2069
2086
2106
2117
2126
2114
2096
2079
2064
2048
2028
2007
1993
1969
1930
1884
1842
1813
1796
1786
1778
1798
1820
1837
1838
1834
1821
1803
1786
1768
1754
1733
1717
1700
1676
1625
1582
1552
1531
1520
1515
1529
1554
1572
1580
1586
1571
1558
1541
1526
1509
1493
1477
1461
1442
1399
1355
1319
1303
1288
1282
1292
1317
1336
1349
1357
1353
1338
1325
1312
1297
1281
1270
1254
1236
1205
1158
1123
1101
1088
1082
1080
1104
1129
1149
1161
1160
1149
1137
1123
1113
1100
1085
1074
1066
1041
993
949
931
914
910
907
925
956
981
993
1002
995
986
974
964
953
942
930
919
906
869
836
803
792
786
786
802
835
859
879
895
891
887
880
875
867
856
841
841
833
809
774
740
727
719
720
736
760
803
831
847
859
854
850
846
843
840
837
832
827
815
777
750
736
731
734
742
775
809
845
865
886
886
881
879
877
877
877
874
872
866
836
805
786
781
786
795
821
859
892
920
935
946
944
945
942
942
938
938
939
936
911
881
862
852
852
860
883
912
950
982
1002
1008
1008
1008
1005
1006
1003
1005
1002
999
985
952
923
910
904
910
916
951
990
1020
1040
1056
1053
1051
1048
1046
1043
1040
1030
1034
1019
991
963
939
929
933
940
957
998
1027
1049
1068
1070
1063
1058
1056
1050
1039
1042
1036
1029
998
964
937
926
927
930
946
978
1013
1037
1054
1058
1056
1050
1042
1037
1031
1026
1019
1015
993
951
921
905
900
902
908
939
975
1001
1017
1030
1024
1018
1014
1007
1002
997
990
984
972
930
898
877
868
866
871
897
934
958
981
993
991
986
982
973
971
962
959
950
943
912
873
846
835
833
834
850
883
913
934
958
955
950
948
942
935
934
924
924
913
890
849
822
807
802
806
811
844
878
901
923
932
928
923
917
912
907
903
898
890
877
840
810
785
782
783
789
816
853
885
900
914
912
905
901
895
891
884
881
874
866
829
800
775
767
767
772
793
828
860
882
908
908
905
898
892
889
886
879
877
868
850
808
786
772
769
772
783
813
845
881
893
903
902
895
889
886
882
877
870
871
860
815
786
772
767
766
777
805
842
869
887
906
904
901
897
895
891
886
880
882
868
833
804
781
775
779
781
801
842
870
896
907
915
912
909
905
902
897
895
890
886
862
824
797
789
788
793
808
843
876
907
923
932
933
925
922
921
916
913
907
905
891
862
824
809
803
807
807
845
880
911
931
949
947
944
940
936
934
933
926
926
916
882
853
833
823
826
831
858
891
925
945
965
970
967
962
959
959
955
949
946
942
911
882
857
850
846
851
869
903
938
961
980
993
990
988
988
983
979
974
975
969
952
910
891
877
872
877
886
916
954
983
1001
1014
1014
1011
1009
1003
1003
999
995
991
979
952
915
898
890
894
901
924
967
991
1023
1036
1041
1040
1038
1039
1040
1038
1038
1038
1036
1009
983
960
957
961
972
996
1042
1078
1111
1142
1153
1158
1165
1170
1182
1183
1195
1204
1213
1209
1185
1175
1180
1194
1215
1239
1289
1345
1391
1429
1462
1487
1494
1516
1534
1551
1572
1590
1609
1624
1612
1602
1608
1630
1657
1688
1740
1801
1858
1906
1943
1972
1992
2014
2036
2058
2079
2099
2120
2136
2133
2116
2116
2129
2150
2174
2217
2271
2323
2367
2403
2429
2443
2452
2469
2482
2495
2501
2514
2519
2513
2492
2473
2470
2476
2490
2505
2551
2592
2623
2648
2667
2667
2668
2668
2665
2664
2660
2657
2655
2639
2592
2570
2551
2543
2542
2541
2566
2596
2620
2636
2648
2640
2630
2618
2608
2596
2583
2571
2556
2537
2492
2455
2423
2401
2390
2382
2388
2411
2431
2442
2450
2439
2424
2403
2388
2368
2352
2334
2317
2299
2262
2209
2169
2144
2125
2114
2113
2132
2153
2164
2168
2162
2145
2128
2109
2090
2071
2053
2034
2011
1987
1931
1889
1860
1838
1827
1816
1832
1852
1866
1873
1877
1861
1845
1829
1811
1793
1776
1758
1739
1716
1671
1623
1583
1565
1551
1543
1552
1575
1592
1602
1607
1597
1583
1566
1548
1533
1512
1503
1486
1465
1433
1383
1342
1323
1305
1299
1301
1324
1348
1366
1372
1369
1360
1340
1324
1309
1296
1280
1265
1249
1224
1175
1134
1113
1094
1088
1084
1107
1132
1152
1161
1168
1154
1143
1133
1116
1103
1090
1076
1065
1048
1002
963
934
918
911
909
924
949
977
992
1004
998
987
978
964
951
940
930
921
907
874
833
801
786
779
779
788
818
847
866
879
883
874
868
859
852
844
835
830
824
804
764
729
713
707
708
714
749
779
806
824
839
834
831
825
823
818
811
809
803
794
758
719
710
701
705
713
736
773
806
829
847
852
848
847
846
844
843
842
837
836
810
778
759
749
752
757
782
814
853
880
903
912
910
912
909
907
905
905
904
897
886
849
827
817
816
824
831
869
907
935
959
976
981
980
978
980
977
975
973
976
963
927
904
881
884
879
887
909
953
983
1008
1029
1029
1026
1024
1025
1020
1011
1014
1008
1003
975
938
916
905
906
913
926
963
999
1024
1043
1047
1046
1043
1038
1034
1030
1025
1019
1014
994
955
927
913
906
910
914
947
983
1012
1026
1040
1036
1030
1028
1022
1014
1011
1004
997
986
948
916
885
884
887
890
916
948
977
997
1012
1012
1005
998
994
990
982
974
972
964
929
888
869
858
854
859
875
900
932
959
978
981
971
967
962
954
949
943
937
929
903
867
826
823
818
820
829
861
894
919
937
947
944
937
934
930
921
916
907
900
886
847
816
797
794
790
796
823
858
885
904
921
922
910
905
906
895
889
883
877
866
836
798
775
764
765
768
787
818
852
876
890
895
889
884
876
874
867
865
861
852
826
791
763
750
747
753
755
796
831
857
874
878
876
874
868
863
857
853
849
843
831
791
761
747
739
743
748
778
811
845
862
878
874
871
865
862
860
856
852
846
837
804
763
750
727
739
744
768
800
833
859
870
874
874
873
869
863
860
854
858
845
820
784
757
747
745
749
756
797
832
859
885
887
882
882
878
874
869
863
864
853
840
804
776
763
757
762
770
804
841
865
891
905
903
900
895
894
888
885
882
881
869
823
800
784
779
777
785
813
847
878
902
917
922
915
914
913
909
906
905
907
895
869
835
807
799
800
805
823
856
891
911
930
941
942
940
936
935
931
929
928
920
905
868
842
829
823
826
835
868
904
934
954
969
966
965
961
957
956
952
953
943
935
900
871
853
845
850
852
880
916
951
972
991
993
985
983
990
978
976
974
971
965
935
904
879
872
865
878
894
933
968
995
1011
1017
1015
1013
1015
1011
1010
1007
1005
1004
987
956
927
919
919
925
937
980
1016
1048
1077
1100
1097
1102
1108
1110
1118
1126
1128
1134
1137
1111
1091
1086
1094
1110
1132
1174
1223
1273
1312
1345
1363
1380
1398
1407
1425
1443
1459
1479
1493
1487
1476
1478
1494
1520
1550
1592
1653
1711
1760
1804
1837
1855
1880
1901
1922
1946
1967
1988
2009
2011
1994
2004
2016
2038
2063
2098
2156
2212
2262
2300
2334
2352
2366
2383
2401
2416
2431
2436
2456
2464
2439
2428
2426
2433
2449
2471
2512
2558
2601
2630
2655
2662
2666
2669
2674
2672
2675
2679
2678
2671
2639
2608
2586
2579
2581
2585
2605
2638
2667
2686
2698
2698
2692
2683
2674
2671
2653
2643
2631
2620
2578
2541
2506
2486
2473
2466
2469
2492
2516
2531
2538
2538
2523
2505
2488
2474
2454
2438
2419
2406
2374
2320
2279
2250
2229
2219
2210
2224
2244
2259
2264
2271
2250
2234
2212
2193
2178
2156
2133
2116
2091
2044
1993
1958
1931
1919
1908
1916
1933
1952
1957
1958
1949
1930
1912
1892
1874
1856
1836
1816
1800
1763
1708
1670
1644
1627
1618
1614
1634
1654
1661
1664
1667
1648
1634
1616
1602
1582
1564
1551
1533
1504
1450
1411
1385
1366
1357
1350
1366
1401
1409
1416
1419
1405
1389
1373
1356
1334
1327
1313
1297
1276
1229
1189
1154
1136
1132
1122
1136
1161
1181
1198
1208
1197
1179
1166
1152
1140
1123
1108
1090
1082
1048
1000
963
948
942
939
946
968
995
1011
1028
1026
1011
998
990
977
960
953
942
931
908
860
819
806
795
792
795
822
851
876
890
903
889
884
878
872
862
853
846
840
825
786
750
730
723
720
725
745
778
810
829
845
847
840
839
835
826
825
820
817
807
782
749
723
716
722
722
741
778
813
841
860
870
870
871
866
865
867
863
863
860
844
809
787
776
773
782
795
832
873
907
928
942
940
941
939
941
942
939
940
939
931
897
873
856
855
858
869
899
943
981
999
1020
1023
1022
1023
1020
1021
1019
1015
1012
1009
968
951
931
921
924
930
951
988
1024
1050
1071
1079
1074
1072
1063
1065
1064
1060
1057
1049
1033
995
969
957
952
964
966
1002
1036
1065
1082
1094
1088
1086
1080
1077
1070
1069
1066
1060
1050
1003
976
957
948
949
954
979
1017
1048
1064
1081
1079
1073
1067
1062
1056
1051
1045
1041
1026
992
953
928
918
915
910
939
973
1002
1024
1038
1042
1036
1033
1025
1019
1011
1006
999
990
963
923
894
880
872
875
886
916
947
973
989
999
990
984
978
972
965
954
950
944
927
886
854
835
831
829
836
862
887
921
939
952
944
942
935
931
925
917
912
905
894
859
802
794
785
785
788
809
844
875
895
909
910
906
900
895
889
882
878
871
867
832
799
773
763
766
760
774
806
841
866
878
891
884
880
875
869
865
859
856
848
835
790
762
746
740
743
748
778
814
844
861
873
870
872
863
859
853
848
845
836
827
791
756
738
730
733
745
761
795
827
849
867
864
864
859
854
854
848
843
843
830
805
767
743
732
732
735
752
782
818
845
868
871
867
864
860
856
852
849
843
834
827
780
754
741
735
739
745
780
813
845
863
878
873
870
866
865
862
858
853
848
839
802
772
754
745
754
754
780
815
850
870
891
890
886
885
882
879
876
873
869
861
842
798
773
766
765
770
789
823
857
882
902
909
905
902
900
899
895
892
886
883
867
821
798
783
783
784
794
832
868
892
916
929
925
932
922
919
916
912
908
906
891
864
839
814
801
811
817
845
881
913
932
952
953
952
949
944
939
940
940
932
926
895
861
839
834
833
838
859
892
932
952
974
982
979
978
979
973
973
975
973
970
952
921
900
894
895
907
925
960
1006
1044
1071
1093
1101
1106
1111
1119
1129
1136
1142
1150
1156
1131
1118
1117
1128
1148
1171
1221
1275
1326
1365
1400
1426
1442
1461
1480
1502
1523
1544
1562
1579
1574
1566
1568
1586
1616
1646
1694
1752
1809
1862
1902
1933
1958
1982
2005
2027
2050
2074
2091
2110
2112
2097
2094
2107
2127
2154
2191
2241
2299
2344
2382
2412
2428
2444
2458
2471
2482
2495
2506
2516
2514
2486
2469
2466
2471
2481
2494
2537
2581
2617
2644
2665
2667
2665
2667
2668
2665
2666
2663
2659
2650
2614
2581
2557
2545
2545
2545
2562
2594
2624
2640
2655
2646
2639
2624
2615
2602
2589
2576
2564
2548
2507
2466
2428
2408
2393
2382
2386
2407
2432
2445
2458
2444
2430
2413
2394
2379
2359
2340
2322
2303
2270
2217
2175
2145
2127
2117
2108
2123
2143
2159
2156
2164
2145
2122
2105
2085
2067
2045
2028
2008
1983
1934
1889
1851
1828
1815
1815
1813
1832
1843
1858
1859
1846
1830
1811
1793
1776
1755
1741
1719
1698
1656
1603
1565
1545
1528
1521
1523
1544
1554
1577
1580
1576
1557
1541
1527
1510
1492
1477
1459
1439
1414
1362
1321
1294
1279
1264
1265
1285
1307
1327
1330
1337
1323
1310
1294
1279
1264
1253
1236
1216
1193
1145
1104
1075
1051
1050
1042
1054
1081
1104
1113
1111
1112
1099
1088
1072
1058
1045
1033
1016
1001
963
920
885
867
860
864
866
894
920
937
946
946
936
926
913
901
893
877
871
859
837
792
759
741
728
728
732
769
792
814
832
840
833
828
817
809
805
798
791
787
768
732
697
676
669
670
673
699
735
764
784
796
798
795
792
789
783
781
777
772
760
733
702
678
672
672
679
700
737
774
800
821
831
827
826
825
822
823
822
823
819
799
767
744
733
734
740
754
796
830
865
881
899
900
900
899
898
894
897
897
896
888
855
826
811
809
815
823
860
894
928
952
974
974
971
973
970
970
967
964
963
957
921
896
873
866
869
874
895
934
970
994
1012
1020
1016
1014
1012
1009
1004
1000
994
987
963
929
894
892
887
891
898
930
967
999
1013
1025
1024
1020
1015
1011
1004
1001
995
990
974
933
900
886
874
876
885
909
944
970
990
1002
1001
989
991
985
977
973
967
958
950
908
876
851
841
837
844
860
892
924
943
958
961
956
951
944
937
933
926
922
912
885
847
817
802
798
800
809
839
873
898
916
920
919
909
903
898
889
883
876
867
849
810
780
762
754
753
759
788
823
849
868
881
876
872
868
861
855
853
844
838
827
789
763
732
721
723
723
744
778
808
828
848
849
843
842
833
829
821
818
818
806
779
741
714
703
700
711
716
750
784
806
823
825
828
823
822
813
806
800
798
793
776
740
712
693
683
688
695
725
761
788
809
825
820
814
810
807
803
796
792
785
779
742
713
690
684
687
696
714
750
780
804
822
822
813
813
809
808
803
799
795
788
757
724
702
691
691
698
713
748
775
806
829
829
829
826
824
822
817
811
808
802
793
748
721
705
695
710
707
748
782
813
831
852
841
842
839
836
833
827
827
824
812
776
745
730
720
724
728
754
793
825
850
870
867
862
863
860
857
854
839
843
839
808
770
750
741
742
749
768
802
836
864
882
893
890
886
885
882
877
877
874
873
846
814
789
777
771
776
784
819
854
884
904
917
913
912
906
905
908
899
894
892
882
846
826
800
793
803
804
831
871
899
921
932
939
935
928
929
926
923
922
917
911
878
847
821
813
815
821
842
875
911
935
954
960
959
950
952
951
945
943
936
934
906
878
854
844
844
846
865
900
938
968
992
1007
1011
1011
1012
1013
1014
1017
1020
1027
1019
987
964
956
959
971
987
1029
1077
1119
1151
1185
1195
1208
1218
1232
1244
1257
1275
1284
1297
1284
1276
1276
1288
1314
1342
1388
1447
1511
1559
1603
1623
1647
1669
1686
1716
1736
1763
1786
1804
1808
1801
1801
1820
1843
1877
1919
1980
2043
2099
2139
2174
2195
2216
2237
2259
2278
2300
2319
2331
2344
2323
2318
2323
2338
2359
2382
2433
2486
2529
2560
2599
2604
2616
2624
2630
2632
2644
2649
2652
2653
2626
2600
2583
2583
2591
2596
2623
2658
2694
2711
2739
2732
2727
2723
2717
2711
2705
2697
2689
2678
2646
2602
2570
2556
2543
2540
2546
2568
2595
2608
2618
2616
2601
2584
2567
2556
2542
2521
2503
2481
2459
2403
2358
2330
2312
2297
2293
2310
2328
2343
2347
2339
2328
2312
2290
2269
2252
2231
2212
2189
2163
2112
2066
2031
2010
1993
1985
1995
2015
2034
2035
2033
2021
2000
1983
1961
1940
1919
1899
1881
1857
1812
1763
1724
1699
1685
1674
1679
1700
1717
1727
1739
1723
1703
1684
1667
1650
1631
1613
1595
1579
1543
1494
1455
1428
1408
1399
1394
1417
1436
1449
1455
1456
1441
1425
1406
1390
1374
1358
1332
1327
1305
1252
1212
1180
1161
1154
1150
1168
1192
1212
1220
1221
1211
1196
1181
1167
1152
1139
1126
1111
1092
1052
1005
973
958
947
942
954
980
1004
1019
1024
1021
1006
996
982
972
956
946
932
916
885
841
809
789
778
772
776
806
830
854
861
867
857
849
839
838
821
811
800
791
776
734
694
674
664
662
662
691
721
746
763
786
773
764
758
749
750
740
734
729
717
677
645
626
613
616
617
639
675
706
728
746
750
748
746
741
740
735
732
728
727
699
667
640
631
631
639
653
695
725
746
776
787
783
783
778
780
781
774
776
773
763
726
699
683
680
689
699
734
771
804
828
843
845
843
842
840
837
837
834
835
826
792
763
744
736
741
747
772
801
842
864
879
883
883
884
881
876
873
872
867
860
832
794
768
762
760
769
776
814
846
876
897
898
895
893
887
883
876
878
861
863
839
805
775
757
751
753
760
794
827
847
877
889
888
876
872
866
861
855
851
844
835
791
760
740
728
730
735
760
794
821
845
859
860
855
846
842
831
828
821
821
810
775
736
711
696
695
707
712
746
782
801
817
821
814
807
800
794
788
781
786
774
748
704
673
661
654
653
660
693
730
754
771
786
778
772
767
760
757
752
746
743
731
688
659
637
629
629
631
657
695
724
745
763
757
752
747
743
738
730
721
724
708
675
641
618
612
606
609
627
664
698
721
736
742
735
731
728
721
717
703
706
699
676
639
610
600
597
602
610
645
681
708
725
737
733
730
724
722
713
710
706
694
687
646
618
601
595
598
604
631
670
699
721
736
736
735
730
729
729
723
720
716
702
671
638
617
609
613
619
649
676
710
735
754
755
750
747
743
742
739
734
732
727
705
664
636
628
626
633
646
679
715
743
763
772
772
767
764
762
758
755
751
748
740
692
664
650
645
648
657
690
730
762
780
796
795
792
786
784
774
777
773
772
764
728
698
677
667
669
678
703
741
774
797
817
821
816
815
805
808
805
804
800
795
772
734
712
698
701
706
727
763
796
822
841
857
850
847
846
842
839
832
833
828
815
773
746
737
731
738
746
781
819
841
871
882
882
878
877
875
870
868
866
865
853
817
788
766
763
767
771
800
836
869
890
907
916
905
902
900
898
892
893
889
881
853
821
796
793
790
796
816
852
884
914
931
939
935
936
931
927
926
923
916
914
901
853
833
822
821
829
835
867
907
935
952
969
964
963
959
956
951
949
944
946
932
896
866
848
842
848
856
887
923
955
977
994
988
987
988
983
973
977
976
970
963
930
899
877
868
869
876
900
938
975
998
1016
1027
1030
1022
1019
1016
1017
1017
1011
1011
990
946
933
928
930
940
961
998
1046
1071
1097
1116
1124
1129
1135
1145
1147
1155
1162
1171
1170
1140
1126
1129
1138
1159
1185
1232
1285
1331
1374
1410
1427
1445
1464
1483
1502
1524
1542
1564
1577
1567
1559
1562
1580
1609
1641
1690
1753
1813
1862
1906
1933
1959
1983
2004
2021
2050
2068
2095
2115
2111
2104
2104
2120
2144
2170
2210
2267
2328
2379
2414
2444
2460
2481
2494
2509
2525
2539
2550
2563
2563
2539
2527
2523
2534
2549
2566
2608
2652
2688
2717
2739
2743
2746
2749
2749
2749
2743
2745
2743
2733
2696
2664
2642
2635
2634
2642
2663
2694
2722
2737
2751
2746
2734
2722
2721
2703
2687
2675
2662
2644
2607
2559
2523
2502
2491
2486
2490
2511
2532
2543
2547
2548
2526
2511
2490
2471
2453
2436
2417
2397
2361
2303
2261
2233
2215
2202
2193
2213
2234
2246
2246
2241
2223
2203
2184
2166
2141
2117
2100
2078
2051
1995
1951
1916
1892
1876
1865
1877
1897
1912
1915
1919
1900
1882
1860
1841
1821
1805
1777
1763
1738
1690
1642
1602
1579
1566
1551
1554
1575
1591
1602
1607
1597
1577
1558
1541
1522
1503
1481
1466
1445
1409
1359
1313
1288
1275
1262
1263
1286
1312
1324
1329
1333
1315
1296
1279
1261
1245
1229
1213
1195
1171
1119
1082
1050
1032
1025
1010
1035
1058
1078
1087
1091
1080
1063
1048
1034
1017
1004
987
976
956
912
869
840
816
808
801
811
841
864
880
889
885
873
863
848
836
823
811
798
784
752
707
669
657
648
647
654
689
711
732
746
743
739
729
720
710
701
694
686
678
659
616
582
564
557
560
562
600
629
657
674
689
675
678
674
670
665
661
651
651
641
602
584
556
547
552
560
584
622
657
681
704
706
703
702
699
700
697
697
700
692
662
634
610
604
603
610
634
669
707
735
757
774
774
777
775
774
773
776
771
770
757
713
697
687
685
694
705
747
786
818
841
861
866
859
858
858
856
857
861
853
847
810
784
767
762
768
777
807
848
886
906
923
929
927
930
927
923
918
915
913
906
878
844
821
817
815
820
842
879
913
938
959
965
956
960
958
955
950
946
934
937
914
881
855
841
839
844
851
886
924
951
972
987
983
978
977
968
961
959
949
945
935
894
863
843
837
836
843
869
905
936
957
968
972
966
960
957
951
941
939
934
922
895
854
834
825
821
828
844
879
913
937
959
955
948
942
934
931
926
922
916
909
883
847
814
800
797
798
808
842
887
902
922
931
925
922
916
911
907
901
896
891
877
833
798
781
777
778
784
812
852
879
896
914
911
906
898
895
891
888
879
876
866
832
794
772
764
765
768
789
823
857
880
896
900
896
893
887
885
878
877
871
864
834
799
772
761
755
762
774
811
844
869
893
902
896
891
888
887
878
875
872
869
852
811
782
766
760
763
771
792
839
869
892
907
903
898
895
892
887
882
878
875
867
828
797
776
771
774
777
800
840
876
895
912
918
913
909
905
903
902
894
888
879
857
818
796
787
785
789
804
840
878
899
923
930
924
923
920
914
910
909
904
898
888
846
819
803
800
806
814
846
882
913
934
950
950
950
945
942
942
941
939
931
923
885
856
834
828
834
843
868
908
936
962
977
984
982
978
975
965
969
967
962
955
933
895
869
863
864
869
887
921
959
986
1002
1015
1012
1008
1004
1007
1000
997
995
994
974
935
909
896
894
899
909
943
981
1013
1033
1046
1046
1043
1042
1038
1033
1032
1027
1024
1012
977
945
927
919
924
931
958
996
1032
1052
1082
1071
1067
1068
1063
1060
1056
1058
1051
1045
1015
979
948
947
948
953
971
1007
1041
1069
1086
1089
1091
1088
1085
1085
1082
1071
1073
1065
1044
1006
980
965
963
969
977
1011
1045
1079
1101
1111
1106
1104
1099
1098
1094
1095
1086
1086
1073
1032
1003
985
981
983
987
1018
1055
1089
1111
1130
1126
1127
1126
1123
1124
1121
1122
1118
1113
1090
1053
1030
1029
1034
1043
1071
1112
1152
1183
1208
1221
1227
1229
1239
1244
1249
1257
1265
1273
1263
1240
1227
1229
1244
1266
1291
1345
1399
1449
1484
1515
1531
1550
1570
1584
1603
1616
1644
1662
1674
1657
1656
1664
1686
1711
1744
1798
1865
1923
1968
2012
2035
2056
2078
2103
2120
2149
2170
2189
2208
2200
2191
2194
2212
2235
2263
2304
2362
2420
2464
2501
2529
2543
2558
2573
2588
2599
2611
2622
2633
2622
2599
2585
2585
2600
2609
2632
2678
2719
2749
2779
2788
2794
2796
2797
2793
2795
2792
2791
2789
2773
2731
2699
2684
2674
2674
2677
2703
2732
2758
2772
2782
2774
2762
2751
2737
2723
2712
2698
2684
2662
2617
2571
2545
2522
2516
2506
2521
2535
2551
2566
2569
2557
2541
2520
2503
2485
2466
2447
2428
2406
2364
2309
2266
2241
2224
2214
2213
2228
2247
2261
2259
2255
2230
2210
2189
2169
2151
2129
2107
2089
2052
1999
1954
1926
1907
1892
1884
1902
1919
1932
1937
1936
1917
1896
1880
1860
1841
1821
1802
1787
1759
1708
1660
1624
1602
1590
1580
1589
1612
1632
1641
1641
1629
1611
1599
1577
1560
1541
1526
1510
1487
1450
1394
1355
1337
1321
1312
1320
1341
1365
1380
1383
1368
1359
1342
1329
1317
1300
1286
1269
1254
1229
1167
1130
1104
1090
1084
1081
1099
1130
1155
1155
1154
1143
1128
1116
1102
1088
1072
1058
1044
1023
975
935
909
893
887
883
901
929
952
966
967
966
955
942
933
924
917
899
889
874
841
798
768
754
747
749
760
789
816
836
851
853
844
834
831
825
816
806
799
793
761
735
697
684
680
684
694
725
761
785
805
818
813
808
804
800
798
794
791
786
777
735
708
698
688
693
696
734
772
807
831
850
850
847
847
849
845
842
844
841
835
804
776
754
749
751
755
786
822
858
892
902
919
921
920
920
919
918
918
916
912
886
867
836
830
830
839
854
882
930
959
981
993
994
991
991
990
988
988
986
981
970
933
904
891
887
892
900
932
976
1002
1025
1042
1039
1036
1031
1030
1026
1022
1023
1014
1005
971
937
911
904
906
912
933
968
1005
1026
1040
1043
1037
1033
1034
1023
1018
1013
1008
1000
972
935
905
894
890
893
906
937
968
993
1008
1017
1010
1006
1001
998
988
982
975
973
948
908
875
858
851
852
862
886
921
952
963
979
971
965
960
952
946
940
934
926
912
870
837
812
816
802
804
829
859
889
907
925
925
915
913
906
900
894
884
879
872
838
798
770
757
755
753
770
805
840
861
880
881
874
867
861
860
849
846
835
829
813
769
735
721
715
717
724
757
791
814
838
850
839
835
828
824
817
812
807
800
787
746
716
695
686
689
692
719
756
785
805
825
817
813
809
806
800
794
787
781
774
745
709
684
670
671
677
693
730
763
788
804
809
804
799
795
791
787
786
786
771
749
710
681
671
668
668
678
713
748
776
796
805
802
797
793
791
784
786
774
769
756
704
690
670
661
665
673
702
739
770
792
810
806
802
800
796
790
789
781
781
774
736
720
687
679
681
685
716
739
779
803
823
825
827
817
814
811
806
804
799
795
773
736
710
698
699
704
715
750
783
819
840
845
841
837
836
831
829
827
824
817
804
766
740
725
720
724
731
764
802
832
855
870
867
865
862
859
858
856
852
852
841
806
779
758
753
753
760
784
823
858
884
898
898
897
895
895
891
888
885
882
877
851
816
792
784
785
793
809
843
876
908
915
937
933
928
926
923
918
914
913
911
891
855
828
818
813
821
824
864
900
930
951
967
961
960
955
954
951
946
944
943
931
886
870
848
845
847
855
884
920
948
974
989
989
988
985
982
978
974
967
964
960
929
897
873
864
869
874
893
930
967
989
1013
1017
1016
1015
1014
1009
1008
1008
1007
1005
987
952
927
920
924
932
944
986
1033
1063
1090
1108
1113
1118
1121
1131
1138
1134
1154
1160
1166
1138
1126
1126
1133
1154
1178
1224
1289
1332
1372
1412
1429
1445
1465
1484
1503
1526
1547
1566
1585
1583
1572
1580
1597
1627
1661
1709
1772
1834
1885
1930
1962
1987
2010
2033
2059
2082
2110
2133
2156
2162
2145
2150
2164
2189
2219
2257
2312
2376
2428
2470
2490
2515
2533
2550
2565
2579
2593
2605
2619
2622
2600
2585
2583
2590
2605
2623
2665
2710
2748
2776
2796
2801
2802
2804
2805
2804
2802
2800
2799
2790
2758
2721
2698
2689
2687
2691
2709
2739
2770
2787
2798
2792
2782
2772
2760
2747
2734
2721
2706
2693
2653
2606
2567
2545
2534
2526
2527
2550
2570
2583
2587
2579
2560
2542
2521
2502
2484
2468
2446
2427
2396
2343
2305
2265
2242
2233
2223
2236
2258
2269
2274
2270
2248
2237
2204
2185
2167
2143
2127
2103
2079
2026
1976
1938
1918
1902
1893
1902
1919
1938
1955
1945
1924
1906
1887
1866
1847
1829
1809
1789
1766
1712
1674
1635
1608
1595
1586
1589
1609
1630
1635
1643
1632
1611
1592
1577
1561
1540
1525
1506
1484
1457
1405
1365
1335
1320
1313
1310
1331
1357
1377
1379
1377
1362
1346
1328
1312
1297
1282
1267
1251
1224
1178
1136
1108
1092
1084
1080
1095
1120
1148
1153
1158
1149
1134
1116
1106
1088
1074
1060
1046
1028
994
942
910
890
883
879
887
912
942
956
965
959
948
932
922
910
897
891
873
864
827
783
748
729
718
718
721
755
779
800
818
819
812
801
793
784
777
773
762
753
744
692
671
645
635
635
638
666
702
732
749
764
761
761
747
741
737
732
732
721
712
674
645
626
613
616
621
643
684
716
741
755
760
766
757
755
756
753
752
752
744
720
687
664
654
657
664
681
717
748
791
814
824
823
822
821
819
819
817
816
822
802
767
746
728
727
734
745
767
817
850
873
893
892
890
892
887
888
885
881
885
873
840
808
789
785
795
797
824
861
900
921
943
947
945
942
939
938
933
927
926
919
898
861
832
823
822
829
843
878
913
940
959
964
960
955
953
951
945
939
934
927
910
866
836
822
817
820
826
851
894
924
940
954
948
943
940
932
923
917
911
907
892
854
820
795
787
789
793
821
853
883
904
918
913
908
903
897
897
884
878
871
861
828
788
766
756
751
755
771
803
837
860
858
878
871
863
856
849
842
835
826
817
794
753
728
709
703
709
713
743
780
806
822
836
828
822
819
812
810
799
796
787
771
734
696
677
664
671
674
694
735
765
785
802
798
795
786
779
773
768
762
761
744
717
678
651
641
641
646
665
700
733
756
772
777
773
767
763
757
751
744
746
734
694
668
645
628
626
630
640
673
712
736
755
764
759
753
750
745
738
735
733
729
716
675
642
628
622
629
630
663
697
728
747
766
763
758
755
751
746
744
738
736
726
692
659
636
631
628
635
655
692
727
750
768
773
768
763
761
759
753
749
745
741
717
678
651
639
638
643
658
690
727
758
781
788
784
784
780
777
772
769
768
763
747
707
677
662
657
661
670
706
742
772
792
809
807
802
797
798
795
791
789
789
778
745
723
692
685
693
693
719
757
792
813
836
837
832
830
827
817
817
821
816
811
784
747
724
724
716
721
740
783
811
840
861
872
870
868
864
860
858
855
852
849
833
794
767
755
750
755
765
801
837
867
890
902
901
897
896
893
891
887
883
889
873
832
804
788
781
783
791
823
857
890
911
933
934
932
929
929
924
921
920
914
907
881
844
822
820
817
823
840
880
914
941
963
969
963
963
960
957
953
951
947
943
929
882
857
848
844
850
857
893
930
961
982
997
996
989
992
988
984
980
976
974
965
926
895
878
873
877
882
911
949
977
1004
1026
1027
1023
1021
1020
1016
1016
1010
1011
1007
979
948
927
923
927
938
959
1001
1042
1074
1096
1104
1116
1120
1125
1134
1133
1143
1151
1157
1148
1122
1110
1113
1123
1145
1171
1214
1278
1323
1364
1399
1416
1434
1454
1475
1492
1512
1529
1553
1568
1552
1552
1562
1583
1614
1646
1703
1759
1826
1875
1922
1949
1972
1996
2017
2047
2071
2094
2122
2138
2134
2130
2133
2160
2178
2212
2254
2317
2375
2423
2458
2491
2508
2525
2543
2560
2573
2588
2604
2615
2606
2583
2573
2578
2590
2604
2626
2673
2717
2752
2785
2802
2803
2804
2805
2807
2806
2804
2802
2797
2784
2746
2715
2697
2690
2687
2695
2723
2754
2778
2793
2802
2789
2776
2764
2753
2740
2725
2712
2698
2678
2629
2584
2548
2529
2519
2512
2524
2545
2562
2573
2577
2564
2545
2526
2506
2483
2462
2443
2422
2398
2351
2301
2259
2232
2214
2201
2203
2221
2236
2249
2251
2232
2217
2194
2170
2153
2128
2099
2091
2064
2027
1971
1927
1894
1873
1858
1850
1865
1890
1894
1895
1892
1876
1857
1839
1814
1798
1779
1750
1733
1707
1649
1606
1571
1545
1537
1526
1539
1561
1577
1584
1590
1581
1556
1539
1522
1503
1486
1468
1447
1429
1381
1334
1299
1271
1263
1254
1263
1285
1307
1317
1329
1315
1297
1280
1266
1250
1231
1220
1201
1186
1149
1104
1067
1047
1032
1022
1025
1042
1071
1088
1100
1100
1084
1072
1058
1043
1029
1015
1000
988
969
918
881
851
838
830
830
851
884
901
912
919
907
896
884
874
865
860
839
827
811
772
731
701
686
692
686
700
730
757
774
784
785
776
767
759
755
744
736
733
718
686
647
619
606
601
602
615
645
679
711
722
730
723
718
715
709
703
699
689
692
677
631
601
586
579
587
595
635
667
698
719
732
735
730
729
727
725
722
721
718
710
685
648
630
627
633
642
668
709
744
767
784
791
790
790
790
789
789
789
786
785
764
728
699
701
704
712
732
769
807
836
859
871
868
866
867
873
861
861
859
854
842
804
777
769
769
777
787
824
861
892
909
928
927
929
924
920
920
914
913
910
901
863
837
815
811
812
818
849
884
916
939
955
958
949
947
949
943
937
932
930
920
887
854
827
818
817
826
843
874
906
932
949
964
940
942
937
934
927
923
913
910
886
847
818
802
796
800
807
838
875
901
919
929
924
919
914
909
900
897
886
880
868
813
799
772
764
765
767
793
828
857
874
891
886
881
874
868
860
854
847
844
833
804
759
734
722
716
725
741
775
810
829
845
848
842
835
829
824
816
811
801
798
771
732
702
688
682
685
694
730
763
796
807
818
811
809
806
797
788
782
777
774
759
717
684
668
660
662
667
698
733
770
783
799
793
790
784
779
776
769
764
762
748
712
682
659
648
648
653
673
709
742
766
780
785
785
776
776
770
767
762
759
751
721
688
659
645
645
648
666
695
726
757
776
783
780
775
772
768
763
763
755
752
739
695
665
650
646
647
658
689
729
758
775
793
790
785
777
775
777
768
764
761
751
713
678
662
656
659
666
694
733
762
785
805
804
807
797
795
791
788
784
785
777
749
709
688
680
681
688
706
741
778
803
827
829
826
820
820
816
814
810
807
803
783
744
716
703
701
711
716
750
786
818
839
854
852
851
847
845
844
839
837
837
827
779
754
737
732
739
746
775
812
843
867
885
887
885
879
881
873
876
873
872
863
832
800
773
768
770
777
799
833
872
898
917
922
919
917
915
915
911
904
906
898
876
840
810
805
805
810
824
859
898
930
945
952
956
952
950
946
943
939
937
932
921
883
855
840
835
841
846
878
917
949
969
985
990
981
978
977
972
971
962
961
949
918
886
866
858
861
876
895
931
966
990
1005
1012
1008
1008
1005
1000
996
993
991
984
961
932
902
895
894
898
917
956
990
1020
1041
1056
1052
1052
1053
1051
1059
1051
1055
1051
1044
1008
990
979
978
991
1007
1042
1090
1130
1160
1189
1195
1205
1215
1222
1235
1244
1255
1266
1274
1259
1240
1241
1253
1276
1303
1348
1403
1456
1503
1543
1565
1587
1608
1629
1649
1672
1693
1716
1735
1736
1723
1726
1747
1772
1806
1851
1911
1971
2024
2072
2102
2123
2145
2165
2187
2209
2234
2251
2270
2276
2259
2257
2266
2284
2309
2336
2396
2456
2501
2538
2566
2579
2591
2600
2612
2628
2633
2641
2649
2650
2621
2601
2595
2597
2608
2629
2657
2699
2735
2762
2781
2783
2783
2779
2779
2774
2767
2760
2758
2746
2712
2674
2645
2633
2630
2628
2639
2672
2697
2715
2724
2721
2707
2695
2681
2667
2650
2634
2617
2598
2569
2518
2476
2453
2437
2429
2424
2449
2468
2480
2484
2484
2465
2443
2424
2404
2384
2365
2343
2325
2296
2245
2199
2163
2140
2133
2120
2137
2157
2168
2174
2172
2153
2132
2111
2090
2066
2045
2025
2008
1982
1925
1883
1843
1821
1803
1795
1800
1818
1842
1849
1850
1837
1818
1797
1777
1757
1741
1718
1713
1678
1639
1590
1550
1519
1505
1497
1493
1514
1534
1551
1548
1544
1530
1511
1495
1477
1455
1442
1420
1407
1379
1325
1285
1257
1239
1226
1224
1241
1262
1283
1289
1292
1284
1267
1250
1233
1220
1210
1188
1166
1152
1116
1061
1030
1012
1003
1000
1013
1039
1061
1076
1080
1073
1062
1048
1035
1022
1006
1000
978
959
927
888
846
828
820
816
821
851
878
895
906
907
899
897
876
866
854
846
834
821
797
753
721
699
694
693
696
723
756
782
795
808
804
793
788
778
772
762
753
755
744
703
671
650
640
644
649
679
714
745
768
777
785
785
781
779
777
773
772
767
764
736
704
684
676
679
686
710
750
784
814
837
845
844
846
836
845
854
846
844
841
827
792
768
762
761
770
778
824
860
894
919
937
935
937
938
936
937
936
937
936
926
893
864
850
847
853
864
895
937
969
996
1018
1017
1018
1015
1014
1010
1008
999
1007
1001
973
939
917
909
913
918
941
979
1012
1038
1057
1065
1062
1060
1060
1053
1048
1047
1043
1043
1016
967
950
939
936
938
950
983
1019
1045
1064
1077
1073
1068
1064
1059
1053
1046
1042
1036
1024
979
948
929
918
919
925
954
988
1017
1037
1054
1050
1042
1037
1030
1023
1017
1011
1002
993
952
918
894
882
880
877
900
934
965
985
991
1002
993
985
981
973
965
959
949
942
912
872
844
831
824
827
849
872
902
931
959
953
943
940
936
925
918
913
902
896
880
838
807
789
780
779
786
813
841
878
894
905
904
898
891
885
877
872
867
857
849
810
779
754
745
746
749
768
807
841
858
873
872
866
862
856
849
837
838
832
823
797
758
731
719
717
723
735
770
807
830
848
854
850
844
840
835
829
827
816
816
799
759
730
715
708
712
715
749
787
816
836
849
845
840
837
831
826
824
818
816
805
766
733
713
704
704
712
738
775
805
828
844
847
842
835
835
833
826
822
820
813
788
746
720
711
711
717
732
769
804
830
849
855
851
848
843
838
845
831
826
821
795
776
740
724
720
726
732
769
804
835
855
869
868
869
860
858
854
854
851
846
836
797
764
749
743
748
755
781
817
850
871
888
897
887
882
880
874
873
868
865
859
827
791
765
759
762
768
789
825
859
884
905
910
906
903
899
899
895
892
883
884
862
824
793
786
783
790
802
838
875
902
920
935
929
930
930
927
930
918
927
912
902
863
834
820
814
816
825
857
893
926
947
964
962
962
959
958
954
951
949
948
941
904
880
863
858
863
874
898
939
979
1005
1028
1038
1039
1044
1047
1050
1055
1060
1065
1068
1052
1027
1014
1016
1027
1046
1076
1127
1176
1219
1257
1279
1294
1311
1323
1338
1352
1370
1388
1405
1409
1396
1384
1392
1414
1442
1477
1526
1593
1652
1695
1734
1754
1778
1799
1821
1842
1866
1888
1909
1925
1916
1908
1913
1931
1960
1982
2041
2102
2154
2200
2240
2265
2280
2299
2315
2332
2344
2363
2378
2391
2385
2360
2353
2354
2371
2389
2412
2469
2517
2552
2580
2596
2601
2605
2606
2627
2614
2614
2614
2612
2594
2562
2537
2523
2521
2525
2532
2566
2601
2626
2644
2654
2647
2639
2628
2620
2610
2598
2593
2574
2555
2508
2468
2442
2427
2418
2413
2434
2456
2479
2486
2489
2480
2463
2446
2426
2412
2392
2377
2357
2332
2303
2240
2200
2175
2163
2155
2160
2174
2200
2209
2211
2202
2183
2166
2147
2129
2107
2086
2066
2048
2007
1949
1911
1883
1869
1854
1851
1871
1893
1903
1907
1903
1882
1860
1845
1825
1812
1790
1768
1751
1724
1670
1626
1597
1578
1561
1554
1574
1592
1618
1625
1624
1608
1589
1574
1554
1536
1519
1503
1486
1465
1425
1373
1342
1320
1312
1305
1315
1340
1361
1371
1377
1368
1355
1334
1322
1303
1286
1272
1248
1239
1201
1153
1118
1097
1085
1079
1080
1108
1131
1144
1164
1156
1142
1126
1110
1100
1085
1074
1059
1043
1018
966
928
902
889
887
884
906
936
958
969
975
963
951
941
927
914
910
892
881
865
822
791
757
743
738
741
762
790
818
837
847
855
836
828
820
810
801
792
784
777
745
706
675
676
662
668
683
718
750
775
792
794
790
784
777
772
769
768
762
757
744
704
675
663
660
666
675
708
753
783
802
821
819
817
818
812
811
807
805
802
796
760
734
715
711
720
728
758
799
836
860
883
883
881
879
879
878
875
876
878
873
849
814
794
790
795
808
826
865
902
930
950
963
959
959
956
955
954
950
949
947
925
893
866
857
856
858
874
912
962
981
1001
1014
1010
1007
1004
999
993
990
976
984
973
934
899
883
878
886
893
925
959
985
1011
1028
1028
1020
1014
1010
1004
997
991
986
974
942
907
881
870
871
876
895
931
963
985
1000
1005
999
994
987
982
977
968
960
950
932
896
856
844
842
843
853
887
922
946
959
971
965
960
955
947
939
933
926
919
900
859
826
806
796
800
804
836
872
900
915
928
922
915
906
905
897
889
883
876
859
825
786
762
753
753
757
780
813
846
864
877
879
874
867
861
851
844
838
832
823
797
754
727
715
712
715
732
763
798
822
841
843
837
832
825
819
811
806
800
797
775
736
707
690
684
685
694
729
764
797
811
826
819
816
809
803
798
796
791
787
777
733
703
682
676
679
687
709
749
782
805
818
822
814
811
808
812
801
800
790
782
753
718
692
684
685
690
705
745
780
803
824
828
826
819
815
812
807
803
798
794
773
733
706
694
691
697
710
743
781
812
827
839
843
837
833
830
825
821
817
814
803
764
734
715
709
716
721
750
787
815
840
860
858
852
849
843
840
837
829
826
821
788
750
728
719
721
727
745
779
819
841
866
865
860
856
853
851
839
841
837
825
811
771
743
733
730
733
743
782
819
846
866
881
877
872
869
863
859
855
852
847
835
795
768
751
745
753
760
790
828
861
884
901
900
891
894
894
893
890
886
887
878
854
818
801
796
803
815
842
883
921
955
977
982
994
1003
1004
1009
1013
1020
1025
1033
1013
997
982
989
1005
1028
1057
1112
1164
1211
1248
1278
1293
1309
1326
1340
1352
1376
1394
1420
1423
1407
1404
1413
1434
1464
1504
1561
1619
1671
1718
1764
1786
1808
1830
1855
1877
1898
1921
1940
1957
1946
1940
1942
1964
1991
2021
2070
2128
2184
2227
2268
2288
2304
2319
2334
2349
2366
2378
2390
2402
2388
2368
2356
2360
2372
2390
2417
2463
2510
2540
2570
2587
2587
2590
2592
2591
2590
2590
2589
2586
2573
2529
2502
2485
2481
2486
2491
2522
2558
2580
2596
2607
2597
2583
2576
2563
2550
2538
2526
2511
2493
2443
2404
2370
2351
2341
2340
2354
2380
2400
2408
2399
2401
2385
2369
2352
2333
2314
2295
2275
2255
2219
2167
2118
2093
2075
2068
2070
2085
2110
2121
2125
2115
2093
2074
2052
2034
2012
1990
1969
1951
1914
1864
1817
1789
1769
1757
1753
1773
1798
1816
1815
1812
1796
1773
1752
1735
1718
1698
1682
1662
1637
1583
1537
1506
1486
1475
1469
1486
1509
1529
1537
1535
1525
1508
1491
1475
1459
1441
1423
1407
1391
1346
1296
1262
1242
1236
1225
1231
1257
1284
1293
1301
1293
1279
1263
1249
1236
1219
1205
1189
1173
1139
1088
1054
1030
1017
1014
1009
1042
1068
1086
1099
1096
1086
1070
1061
1038
1033
1019
1004
994
969
916
878
852
838
836
825
858
885
917
924
929
923
908
897
883
871
859
848
835
821
778
736
704
693
689
692
707
748
771
790
805
800
790
783
773
767
759
749
743
734
706
663
633
621
616
616
629
662
694
723
747
748
746
742
737
741
726
721
717
712
697
657
627
610
607
610
620
658
693
723
748
761
760
759
756
751
748
749
740
741
736
703
671
652
648
653
660
689
726
763
791
811
816
817
816
818
817
819
816
818
810
785
752
719
720
724
740
754
790
829
859
884
895
893
891
891
887
885
886
885
879
862
825
797
782
783
790
800
836
877
907
930
947
945
945
943
938
939
932
931
924
914
877
843
825
818
820
805
857
892
926
947
968
964
959
956
952
945
941
938
934
924
901
857
831
823
818
824
840
871
910
935
950
959
951
942
936
930
924
917
910
902
867
838
807
791
787
789
797
828
866
891
913
921
916
910
901
897
890
883
876
884
859
815
778
762
753
755
758
786
820
848
869
884
879
872
865
860
851
846
838
832
819
787
744
722
704
706
711
731
766
798
818
834
837
830
823
816
808
802
795
792
782
760
719
689
676
672
675
686
720
754
780
802
810
804
804
793
788
780
774
768
765
750
702
676
659
651
658
660
692
727
756
778
795
788
784
778
773
768
760
755
758
739
699
658
645
636
632
644
666
704
736
753
780
779
775
771
767
766
755
751
744
742
718
679
653
642
638
642
659
695
730
756
781
784
777
778
774
765
757
756
748
746
734
689
661
643
642
648
653
687
725
756
774
791
787
784
781
776
775
769
764
757
748
713
680
660
653
656
664
688
727
762
784
801
802
795
793
792
790
784
782
779
769
748
700
680
672
667
677
696
734
762
795
804
820
816
814
809
805
804
800
803
790
769
732
704
693
692
694
703
742
774
807
830
846
839
835
832
828
828
823
816
813
804
767
737
722
718
722
730
764
807
840
866
896
889
890
890
898
893
893
895
899
899
876
847
829
831
842
860
894
942
988
1026
1054
1072
1082
1092
1104
1115
1126
1142
1152
1164
1161
1142
1134
1140
1159
1185
1222
1277
1335
1386
1427
1461
1481
1502
1521
1539
1557
1578
1597
1619
1626
1611
1607
1615
1634
1668
1692
1747
1809
1862
1907
1943
1964
1983
2000
2017
2032
2052
2066
2082
2090
2072
2056
2061
2060
2078
2102
2140
2188
2233
2271
2302
2319
2325
2333
2338
2343
2346
2346
2352
2355
2335
2297
2275
2273
2273
2282
2297
2334
2371
2394
2410
2423
2420
2414
2408
2399
2393
2385
2376
2364
2342
2301
2260
2240
2231
2228
2228
2255
2282
2302
2312
2324
2308
2298
2283
2267
2254
2238
2223
2214
2187
2138
2095
2063
2044
2035
2029
2043
2067
2089
2098
2105
2090
2070
2055
2040
2022
2003
1988
1964
1944
1901
1851
1813
1790
1775
1769
1771
1795
1818
1830
1833
1828
1812
1787
1775
1757
1743
1726
1707
1688
1652
1605
1562
1538
1522
1512
1509
1536
1559
1577
1584
1583
1566
1554
1537
1521
1503
1487
1471
1466
1435
1382
1339
1313
1295
1287
1285
1300
1331
1352
1362
1370
1359
1345
1332
1316
1301
1286
1275
1261
1243
1204
1155
1124
1103
1097
1094
1104
1129
1166
1181
1184
1177
1166
1157
1142
1133
1119
1112
1088
1078
1048
992
958
938
927
923
924
950
982
1003
1015
1017
1007
993
982
971
961
946
938
928
906
861
826
801
788
788
787
816
843
868
884
898
886
878
869
860
848
839
829
820
805
767
731
706
692
691
692
714
748
779
798
813
816
809
801
796
788
782
775
769
763
737
698
674
662
661
667
681
717
752
773
805
809
805
802
796
793
786
786
786
781
767
727
699
685
682
690
703
733
772
803
826
847
843
842
842
839
837
833
833
833
825
789
760
742
737
743
751
778
819
852
878
902
902
899
900
897
899
888
893
891
887
859
831
801
795
799
805
825
863
900
929
952
961
958
956
952
950
945
941
939
937
919
883
854
851
837
843
850
887
922
952
972
979
983
979
977
968
970
967
958
966
944
906
874
855
847
851
856
876
917
950
971
990
989
984
977
972
967
961
957
947
938
894
867
841
831
831
834
854
887
920
944
964
964
957
951
946
941
